2.8e-07 0
2.8019e-07 0
2.8037e-07 0
2.8056e-07 0
2.8075e-07 0
2.8094e-07 0
2.8112e-07 0
2.8131e-07 0
2.815e-07 0
2.8169e-07 0
2.8187e-07 0
2.8206e-07 0
2.8225e-07 0
2.8244e-07 0
2.8263e-07 0
2.8282e-07 0
2.8301e-07 0
2.8319e-07 0
2.8338e-07 0
2.8357e-07 0
2.8376e-07 0
2.8395e-07 0
2.8414e-07 0
2.8433e-07 0
2.8452e-07 0
2.8471e-07 0
2.849e-07 0
2.8509e-07 0
2.8528e-07 0
2.8547e-07 0
2.8566e-07 0
2.8585e-07 0
2.8604e-07 0
2.8623e-07 0
2.8642e-07 0
2.8662e-07 0
2.8681e-07 0
2.87e-07 0
2.8719e-07 0
2.8738e-07 0
2.8757e-07 0
2.8777e-07 0
2.8796e-07 0
2.8815e-07 0
2.8834e-07 0
2.8853e-07 0
2.8873e-07 0
2.8892e-07 0
2.8911e-07 0
2.8931e-07 0
2.895e-07 0
2.8969e-07 0
2.8989e-07 0
2.9008e-07 0
2.9027e-07 0
2.9047e-07 0
2.9066e-07 0
2.9085e-07 0
2.9105e-07 0
2.9124e-07 0
2.9144e-07 0
2.9163e-07 0
2.9183e-07 0
2.9202e-07 0
2.9222e-07 0
2.9241e-07 0
2.9261e-07 0
2.928e-07 0
2.93e-07 0
2.9319e-07 0
2.9339e-07 0
2.9358e-07 0
2.9378e-07 0
2.9398e-07 0
2.9417e-07 0
2.9437e-07 0
2.9456e-07 0
2.9476e-07 0
2.9496e-07 0
2.9515e-07 0
2.9535e-07 0
2.9555e-07 0
2.9575e-07 0
2.9594e-07 0
2.9614e-07 0
2.9634e-07 0
2.9654e-07 0
2.9673e-07 0
2.9693e-07 0
2.9713e-07 0
2.9733e-07 0
2.9753e-07 0
2.9773e-07 0
2.9792e-07 0
2.9812e-07 0
2.9832e-07 0
2.9852e-07 0
2.9872e-07 0
2.9892e-07 0
2.9912e-07 0
2.9932e-07 0
2.9952e-07 0
2.9972e-07 0
2.9992e-07 0
3.0012e-07 0
3.0032e-07 0
3.0052e-07 0
3.0072e-07 0
3.0092e-07 0
3.0112e-07 0
3.0132e-07 0
3.0152e-07 0
3.0173e-07 0
3.0193e-07 0
3.0213e-07 0
3.0233e-07 0
3.0253e-07 0
3.0273e-07 0
3.0294e-07 0
3.0314e-07 0
3.0334e-07 0
3.0354e-07 0
3.0375e-07 0
3.0395e-07 0
3.0415e-07 0
3.0435e-07 0
3.0456e-07 0
3.0476e-07 0
3.0496e-07 0
3.0517e-07 0
3.0537e-07 0
3.0557e-07 0
3.0578e-07 0
3.0598e-07 0
3.0619e-07 0
3.0639e-07 0
3.066e-07 0
3.068e-07 0
3.0701e-07 0
3.0721e-07 0
3.0742e-07 0
3.0762e-07 0
3.0783e-07 0
3.0803e-07 0
3.0824e-07 0
3.0844e-07 0
3.0865e-07 0
3.0885e-07 0
3.0906e-07 0
3.0927e-07 0
3.0947e-07 0
3.0968e-07 0
3.0989e-07 0
3.1009e-07 0
3.103e-07 0
3.1051e-07 0
3.1071e-07 0
3.1092e-07 0
3.1113e-07 0
3.1134e-07 0
3.1155e-07 0
3.1175e-07 0
3.1196e-07 0
3.1217e-07 0
3.1238e-07 0
3.1259e-07 0
3.1279e-07 0
3.13e-07 0
3.1321e-07 0
3.1342e-07 0
3.1363e-07 0
3.1384e-07 0
3.1405e-07 0
3.1426e-07 0
3.1447e-07 0
3.1468e-07 0
3.1489e-07 0
3.151e-07 0
3.1531e-07 0
3.1552e-07 0
3.1573e-07 0
3.1594e-07 0
3.1615e-07 0
3.1636e-07 0
3.1657e-07 0
3.1679e-07 0
3.17e-07 0
3.1721e-07 0
3.1742e-07 0
3.1763e-07 0
3.1784e-07 0
3.1806e-07 0
3.1827e-07 0
3.1848e-07 0
3.1869e-07 0
3.1891e-07 0
3.1912e-07 0
3.1933e-07 0
3.1955e-07 0
3.1976e-07 0
3.1997e-07 0
3.2019e-07 0
3.204e-07 0
3.2061e-07 0
3.2083e-07 0
3.2104e-07 0
3.2126e-07 0
3.2147e-07 0
3.2168e-07 0
3.219e-07 0
3.2211e-07 0
3.2233e-07 0
3.2254e-07 0
3.2276e-07 0
3.2297e-07 0
3.2319e-07 0
3.2341e-07 0
3.2362e-07 0
3.2384e-07 0
3.2405e-07 0
3.2427e-07 0
3.2449e-07 0
3.247e-07 0
3.2492e-07 0
3.2514e-07 0
3.2535e-07 0
3.2557e-07 0
3.2579e-07 0
3.2601e-07 0
3.2622e-07 0
3.2644e-07 0
3.2666e-07 0
3.2688e-07 0
3.271e-07 0
3.2731e-07 0
3.2753e-07 0
3.2775e-07 0
3.2797e-07 0
3.2819e-07 0
3.2841e-07 0
3.2863e-07 0
3.2885e-07 0
3.2907e-07 0
3.2928e-07 0
3.295e-07 0
3.2972e-07 0
3.2994e-07 0
3.3016e-07 0
3.3039e-07 0
3.3061e-07 0
3.3083e-07 0
3.3105e-07 0
3.3127e-07 0
3.3149e-07 0
3.3171e-07 0
3.3193e-07 0
3.3215e-07 0
3.3238e-07 0
3.326e-07 0
3.3282e-07 0
3.3304e-07 0
3.3326e-07 0
3.3349e-07 0
3.3371e-07 0
3.3393e-07 0
3.3415e-07 0
3.3438e-07 0
3.346e-07 0
3.3482e-07 0
3.3505e-07 0
3.3527e-07 0
3.3549e-07 0
3.3572e-07 0
3.3594e-07 0
3.3617e-07 0
3.3639e-07 0
3.3662e-07 0
3.3684e-07 0
3.3706e-07 0
3.3729e-07 0
3.3752e-07 0
3.3774e-07 0
3.3797e-07 0
3.3819e-07 0
3.3842e-07 0
3.3864e-07 0
3.3887e-07 0
3.391e-07 0
3.3932e-07 0
3.3955e-07 0
3.3977e-07 0
3.4e-07 0
3.4023e-07 0
3.4046e-07 0
3.4068e-07 0
3.4091e-07 0
3.4114e-07 0
3.4137e-07 0
3.4159e-07 0
3.4182e-07 0
3.4205e-07 0
3.4228e-07 0
3.4251e-07 0
3.4273e-07 0
3.4296e-07 0
3.4319e-07 0
3.4342e-07 0
3.4365e-07 0
3.4388e-07 0
3.4411e-07 0
3.4434e-07 0
3.4457e-07 0
3.448e-07 0
3.4503e-07 0
3.4526e-07 0
3.4549e-07 0
3.4572e-07 0
3.4595e-07 0
3.4618e-07 0
3.4641e-07 0
3.4664e-07 0
3.4688e-07 0
3.4711e-07 0
3.4734e-07 0
3.4757e-07 0
3.478e-07 0
3.4803e-07 0
3.4827e-07 0
3.485e-07 0
3.4873e-07 0
3.4896e-07 0
3.492e-07 0
3.4943e-07 0
3.4966e-07 0
3.499e-07 0
3.5013e-07 0
3.5036e-07 0
3.506e-07 0
3.5083e-07 0
3.5107e-07 0
3.513e-07 0
3.5154e-07 0
3.5177e-07 0
3.52e-07 0
3.5224e-07 0
3.5247e-07 0
3.5271e-07 0
3.5295e-07 0
3.5318e-07 0
3.5342e-07 0
3.5365e-07 0
3.5389e-07 0
3.5412e-07 0
3.5436e-07 0
3.546e-07 0
3.5483e-07 0
3.5507e-07 0
3.5531e-07 0
3.5555e-07 0
3.5578e-07 0
3.5602e-07 0
3.5626e-07 0
3.565e-07 0
3.5673e-07 0
3.5697e-07 0
3.5721e-07 0
3.5745e-07 0
3.5769e-07 0
3.5793e-07 0
3.5816e-07 0
3.584e-07 0
3.5864e-07 0
3.5888e-07 0
3.5912e-07 0
3.5936e-07 0
3.596e-07 0
3.5984e-07 0
3.6008e-07 0
3.6032e-07 0
3.6056e-07 0
3.608e-07 0
3.6104e-07 0
3.6128e-07 0
3.6153e-07 0
3.6177e-07 0
3.6201e-07 0
3.6225e-07 0
3.6249e-07 0
3.6273e-07 0
3.6298e-07 0
3.6322e-07 0
3.6346e-07 0
3.637e-07 0
3.6395e-07 0
3.6419e-07 0
3.6443e-07 0
3.6468e-07 0
3.6492e-07 0
3.6516e-07 0
3.6541e-07 0
3.6565e-07 0
3.6589e-07 0
3.6614e-07 0
3.6638e-07 0
3.6663e-07 0
3.6687e-07 0
3.6712e-07 0
3.6736e-07 0
3.6761e-07 0
3.6785e-07 0
3.681e-07 0
3.6834e-07 0
3.6859e-07 0
3.6884e-07 0
3.6908e-07 0
3.6933e-07 0
3.6957e-07 0
3.6982e-07 0
3.7007e-07 0
3.7031e-07 0
3.7056e-07 0
3.7081e-07 0
3.7106e-07 0
3.713e-07 0
3.7155e-07 0
3.718e-07 0
3.7205e-07 0
3.723e-07 0
3.7255e-07 0
3.7279e-07 0
3.7304e-07 0
3.7329e-07 0
3.7354e-07 0
3.7379e-07 0
3.7404e-07 0
3.7429e-07 0
3.7454e-07 0
3.7479e-07 0
3.7504e-07 0
3.7529e-07 0
3.7554e-07 0
3.7579e-07 0
3.7604e-07 0
3.7629e-07 0
3.7654e-07 0
3.7679e-07 0
3.7705e-07 0
3.773e-07 0
3.7755e-07 0
3.778e-07 0
3.7805e-07 0
3.7831e-07 0
3.7856e-07 0
3.7881e-07 0
3.7906e-07 0
3.7932e-07 0
3.7957e-07 0
3.7982e-07 0
3.8008e-07 0
3.8033e-07 0
3.8058e-07 0
3.8084e-07 0
3.8109e-07 0
3.8135e-07 0
3.816e-07 0
3.8186e-07 0
3.8211e-07 0
3.8237e-07 0
3.8262e-07 0
3.8288e-07 0
3.8313e-07 0
3.8339e-07 0
3.8364e-07 0
3.839e-07 0
3.8416e-07 0
3.8441e-07 0
3.8467e-07 0
3.8493e-07 0
3.8518e-07 0
3.8544e-07 0
3.857e-07 0
3.8595e-07 0
3.8621e-07 0
3.8647e-07 0
3.8673e-07 0
3.8699e-07 0
3.8724e-07 0
3.875e-07 0
3.8776e-07 0
3.8802e-07 0
3.8828e-07 0
3.8854e-07 0
3.888e-07 0
3.8906e-07 0
3.8932e-07 0
3.8958e-07 0
3.8984e-07 0
3.901e-07 0
3.9036e-07 0
3.9062e-07 0
3.9088e-07 0
3.9114e-07 0
3.914e-07 0
3.9166e-07 0
3.9192e-07 0
3.9218e-07 0
3.9245e-07 0
3.9271e-07 0
3.9297e-07 0
3.9323e-07 0
3.935e-07 0
3.9376e-07 0
3.9402e-07 0
3.9428e-07 0
3.9455e-07 0
3.9481e-07 0
3.9507e-07 0
3.9534e-07 0
3.956e-07 0
3.9587e-07 0
3.9613e-07 0
3.9639e-07 0
3.9666e-07 0
3.9692e-07 0
3.9719e-07 0
3.9745e-07 0
3.9772e-07 0
3.9798e-07 0
3.9825e-07 0
3.9852e-07 0
3.9878e-07 0
3.9905e-07 0
3.9931e-07 0
3.9958e-07 0
3.9985e-07 0
4.0011e-07 0
4.0038e-07 0
4.0065e-07 0
4.0092e-07 0
4.0118e-07 0
4.0145e-07 0
4.0172e-07 0
4.0199e-07 0
4.0226e-07 0
4.0252e-07 0
4.0279e-07 0
4.0306e-07 0
4.0333e-07 0
4.036e-07 0
4.0387e-07 0
4.0414e-07 0
4.0441e-07 0
4.0468e-07 0
4.0495e-07 0
4.0522e-07 0
4.0549e-07 0
4.0576e-07 0
4.0603e-07 0
4.063e-07 0
4.0657e-07 0
4.0684e-07 0
4.0712e-07 0
4.0739e-07 0
4.0766e-07 0
4.0793e-07 0
4.082e-07 0
4.0848e-07 0
4.0875e-07 0
4.0902e-07 0
4.0929e-07 0
4.0957e-07 0
4.0984e-07 0
4.1011e-07 0
4.1039e-07 0
4.1066e-07 0
4.1094e-07 0
4.1121e-07 0
4.1149e-07 0
4.1176e-07 0
4.1203e-07 0
4.1231e-07 0
4.1258e-07 0
4.1286e-07 0
4.1314e-07 0
4.1341e-07 0
4.1369e-07 0
4.1396e-07 0
4.1424e-07 0
4.1452e-07 0
4.1479e-07 0
4.1507e-07 0
4.1535e-07 0
4.1562e-07 0
4.159e-07 0
4.1618e-07 0
4.1646e-07 0
4.1673e-07 0
4.1701e-07 0
4.1729e-07 0
4.1757e-07 0
4.1785e-07 0
4.1813e-07 0
4.1841e-07 0
4.1869e-07 0
4.1897e-07 0
4.1924e-07 0
4.1952e-07 0
4.198e-07 0
4.2008e-07 0
4.2037e-07 0
4.2065e-07 0
4.2093e-07 0
4.2121e-07 0
4.2149e-07 0
4.2177e-07 0
4.2205e-07 0
4.2233e-07 0
4.2262e-07 0
4.229e-07 0
4.2318e-07 0
4.2346e-07 0
4.2374e-07 0
4.2403e-07 0
4.2431e-07 0
4.2459e-07 0
4.2488e-07 0
4.2516e-07 0
4.2544e-07 0
4.2573e-07 0
4.2601e-07 0
4.263e-07 0
4.2658e-07 0
4.2687e-07 0
4.2715e-07 0
4.2744e-07 0
4.2772e-07 0
4.2801e-07 0
4.2829e-07 0
4.2858e-07 0
4.2886e-07 0
4.2915e-07 0
4.2944e-07 0
4.2972e-07 0
4.3001e-07 0
4.303e-07 0
4.3058e-07 0
4.3087e-07 0
4.3116e-07 0
4.3145e-07 0
4.3174e-07 0
4.3202e-07 0
4.3231e-07 0
4.326e-07 0
4.3289e-07 0
4.3318e-07 0
4.3347e-07 0
4.3376e-07 0
4.3405e-07 0
4.3434e-07 0
4.3463e-07 0
4.3492e-07 0
4.3521e-07 0
4.355e-07 0
4.3579e-07 0
4.3608e-07 0
4.3637e-07 0
4.3666e-07 0
4.3695e-07 0
4.3724e-07 0
4.3754e-07 0
4.3783e-07 0
4.3812e-07 0
4.3841e-07 0
4.387e-07 0
4.39e-07 0
4.3929e-07 0
4.3958e-07 0
4.3988e-07 0
4.4017e-07 0
4.4046e-07 0
4.4076e-07 0
4.4105e-07 0
4.4135e-07 0
4.4164e-07 0
4.4194e-07 0
4.4223e-07 0
4.4253e-07 0
4.4282e-07 0
4.4312e-07 0
4.4341e-07 0
4.4371e-07 0
4.44e-07 0
4.443e-07 0
4.446e-07 0
4.4489e-07 0
4.4519e-07 0
4.4549e-07 0
4.4579e-07 0
4.4608e-07 0
4.4638e-07 0
4.4668e-07 0
4.4698e-07 0
4.4728e-07 0
4.4757e-07 0
4.4787e-07 0
4.4817e-07 0
4.4847e-07 0
4.4877e-07 0
4.4907e-07 0
4.4937e-07 0
4.4967e-07 0
4.4997e-07 0
4.5027e-07 0
4.5057e-07 0
4.5087e-07 0
4.5117e-07 0
4.5147e-07 0
4.5177e-07 0
4.5208e-07 0
4.5238e-07 0
4.5268e-07 0
4.5298e-07 0
4.5328e-07 0
4.5359e-07 0
4.5389e-07 0
4.5419e-07 0
4.545e-07 0
4.548e-07 0
4.551e-07 0
4.5541e-07 0
4.5571e-07 0
4.5601e-07 0
4.5632e-07 0
4.5662e-07 0
4.5693e-07 0
4.5723e-07 0
4.5754e-07 0
4.5784e-07 0
4.5815e-07 0
4.5846e-07 0
4.5876e-07 0
4.5907e-07 0
4.5937e-07 0
4.5968e-07 0
4.5999e-07 0
4.6029e-07 0
4.606e-07 0
4.6091e-07 0
4.6122e-07 0
4.6152e-07 0
4.6183e-07 0
4.6214e-07 0
4.6245e-07 0
4.6276e-07 0
4.6307e-07 0
4.6338e-07 0
4.6368e-07 0
4.6399e-07 0
4.643e-07 0
4.6461e-07 0
4.6492e-07 0
4.6523e-07 0
4.6554e-07 0
4.6586e-07 0
4.6617e-07 0
4.6648e-07 0
4.6679e-07 0
4.671e-07 0
4.6741e-07 0
4.6772e-07 0
4.6804e-07 0
4.6835e-07 0
4.6866e-07 0
4.6897e-07 0
4.6929e-07 0
4.696e-07 0
4.6991e-07 0
4.7023e-07 0
4.7054e-07 0
4.7086e-07 0
4.7117e-07 0
4.7148e-07 0
4.718e-07 0
4.7211e-07 0
4.7243e-07 0
4.7274e-07 0
4.7306e-07 0
4.7338e-07 0
4.7369e-07 0
4.7401e-07 0
4.7432e-07 0
4.7464e-07 0
4.7496e-07 0
4.7527e-07 0
4.7559e-07 0
4.7591e-07 0
4.7623e-07 0
4.7654e-07 0
4.7686e-07 0
4.7718e-07 0
4.775e-07 0
4.7782e-07 0
4.7814e-07 0
4.7846e-07 0
4.7878e-07 0
4.7909e-07 0
4.7941e-07 0
4.7973e-07 0
4.8005e-07 0
4.8038e-07 0
4.807e-07 0
4.8102e-07 0
4.8134e-07 0
4.8166e-07 0
4.8198e-07 0
4.823e-07 0
4.8262e-07 0
4.8295e-07 0
4.8327e-07 0
4.8359e-07 0
4.8391e-07 0
4.8424e-07 0
4.8456e-07 0
4.8488e-07 0
4.8521e-07 0
4.8553e-07 0
4.8585e-07 0
4.8618e-07 0
4.865e-07 0
4.8683e-07 0
4.8715e-07 0
4.8748e-07 0
4.878e-07 0
4.8813e-07 0
4.8846e-07 0
4.8878e-07 0
4.8911e-07 0
4.8943e-07 0
4.8976e-07 0
4.9009e-07 0
4.9041e-07 0
4.9074e-07 0
4.9107e-07 0
4.914e-07 0
4.9173e-07 0
4.9205e-07 0
4.9238e-07 0
4.9271e-07 0
4.9304e-07 0
4.9337e-07 0
4.937e-07 0
4.9403e-07 0
4.9436e-07 0
4.9469e-07 0
4.9502e-07 0
4.9535e-07 0
4.9568e-07 0
4.9601e-07 0
4.9634e-07 1.9597e-41
4.9667e-07 2.5204e-41
4.97e-07 8.3561e-41
4.9733e-07 5.9443e-40
4.9767e-07 1.4446e-39
4.98e-07 2.5363e-39
4.9833e-07 3.2089e-39
4.9866e-07 4.0051e-39
4.99e-07 4.7369e-39
4.9933e-07 5.9602e-39
4.9966e-07 7.1884e-39
5e-07 9.1916e-39
5.0033e-07 1.2037e-38
5.0066e-07 1.6824e-38
5.01e-07 2.6271e-38
5.0133e-07 6.5396e-38
5.0167e-07 5.3403e-36
5.02e-07 6.222e-35
5.0234e-07 1.5054e-34
5.0267e-07 2.6027e-34
5.0301e-07 1.68e-34
5.0334e-07 4.9613e-35
5.0368e-07 1.0203e-35
5.0402e-07 1.4288e-36
5.0435e-07 3.4469e-38
5.0469e-07 1.8604e-38
5.0503e-07 1.3153e-38
5.0536e-07 9.6202e-39
5.057e-07 7.4121e-39
5.0604e-07 5.9821e-39
5.0637e-07 4.8539e-39
5.0671e-07 4.2189e-39
5.0705e-07 3.3542e-39
5.0739e-07 2.694e-39
5.0773e-07 1.7078e-39
5.0807e-07 8.3845e-40
5.0841e-07 9.8661e-41
5.0875e-07 3.2458e-42
5.0909e-07 2.0441e-41
5.0942e-07 1.2194e-41
5.0976e-07 0
5.1011e-07 1.7638e-41
5.1045e-07 2.2061e-41
5.1079e-07 6.3562e-41
5.1113e-07 5.0412e-40
5.1147e-07 1.485e-39
5.1181e-07 2.6995e-39
5.1215e-07 3.3222e-39
5.1249e-07 4.1789e-39
5.1284e-07 5.0181e-39
5.1318e-07 6.1617e-39
5.1352e-07 7.55e-39
5.1386e-07 9.9901e-39
5.1421e-07 1.2968e-38
5.1455e-07 1.8252e-38
5.1489e-07 2.7165e-38
5.1524e-07 8.8328e-38
5.1558e-07 6.3315e-36
5.1592e-07 3.2083e-35
5.1627e-07 2.032e-34
5.1661e-07 2.6489e-34
5.1696e-07 2.0277e-34
5.173e-07 1.2534e-34
5.1765e-07 1.4961e-35
5.1799e-07 1.0508e-36
5.1834e-07 1.1728e-37
5.1869e-07 2.8151e-38
5.1903e-07 2.0589e-38
5.1938e-07 1.6875e-38
5.1972e-07 1.4942e-38
5.2007e-07 1.4425e-38
5.2042e-07 1.5126e-38
5.2077e-07 1.7573e-38
5.2111e-07 2.2255e-38
5.2146e-07 8.0443e-38
5.2181e-07 7.7181e-37
5.2216e-07 2.4768e-35
5.2251e-07 6.2275e-35
5.2285e-07 1.6234e-34
5.232e-07 1.7905e-34
5.2355e-07 7.2426e-35
5.239e-07 3.3143e-35
5.2425e-07 3.4067e-36
5.246e-07 3.699e-38
5.2495e-07 1.8056e-38
5.253e-07 1.2427e-38
5.2565e-07 9.1725e-39
5.26e-07 7.1338e-39
5.2635e-07 5.5017e-39
5.2671e-07 4.3773e-39
5.2706e-07 3.7539e-39
5.2741e-07 3.3531e-39
5.2776e-07 3.0126e-39
5.2811e-07 3.3906e-39
5.2847e-07 3.2499e-39
5.2882e-07 3.0217e-39
5.2917e-07 3.1461e-39
5.2953e-07 3.4648e-39
5.2988e-07 4.1701e-39
5.3023e-07 5.2064e-39
5.3059e-07 6.5802e-39
5.3094e-07 8.4251e-39
5.3129e-07 1.1576e-38
5.3165e-07 1.7014e-38
5.32e-07 2.8833e-38
5.3236e-07 3.8191e-37
5.3271e-07 1.3991e-35
5.3307e-07 5.9737e-35
5.3343e-07 1.5149e-34
5.3378e-07 1.9355e-34
5.3414e-07 9.4705e-35
5.3449e-07 2.3356e-35
5.3485e-07 5.6861e-36
5.3521e-07 1.4278e-37
5.3557e-07 1.9988e-38
5.3592e-07 1.3875e-38
5.3628e-07 1.0961e-38
5.3664e-07 9.9746e-39
5.37e-07 9.3357e-39
5.3736e-07 9.2949e-39
5.3771e-07 9.4326e-39
5.3807e-07 1.0038e-38
5.3843e-07 1.1159e-38
5.3879e-07 1.2775e-38
5.3915e-07 1.4851e-38
5.3951e-07 1.8512e-38
5.3987e-07 2.4467e-38
5.4023e-07 3.6899e-38
5.4059e-07 1.5674e-37
5.4095e-07 1.1367e-35
5.4131e-07 7.0628e-35
5.4167e-07 1.6557e-34
5.4204e-07 2.5679e-34
5.424e-07 2.1498e-34
5.4276e-07 1.2383e-34
5.4312e-07 7.8567e-35
5.4349e-07 6.254e-35
5.4385e-07 4.3665e-35
5.4421e-07 3.9682e-35
5.4457e-07 8.4509e-36
5.4494e-07 7.788e-37
5.453e-07 3.1886e-37
5.4567e-07 1.0883e-35
5.4603e-07 7.6145e-35
5.4639e-07 1.3396e-34
5.4676e-07 1.0272e-34
5.4712e-07 6.5621e-35
5.4749e-07 4.7679e-35
5.4785e-07 1.6857e-35
5.4822e-07 1.0073e-35
5.4859e-07 9.8987e-37
5.4895e-07 1.4823e-35
5.4932e-07 7.1044e-35
5.4968e-07 1.6554e-34
5.5005e-07 2.737e-34
5.5042e-07 2.7371e-34
5.5079e-07 1.3006e-34
5.5115e-07 5.0068e-35
5.5152e-07 1.1952e-35
5.5189e-07 8.6797e-38
5.5226e-07 3.8363e-38
5.5263e-07 2.6878e-38
5.53e-07 2.0713e-38
5.5336e-07 1.6892e-38
5.5373e-07 1.47e-38
5.541e-07 1.3573e-38
5.5447e-07 1.3693e-38
5.5484e-07 1.4439e-38
5.5521e-07 1.6693e-38
5.5558e-07 2.1327e-38
5.5596e-07 3.4644e-38
5.5633e-07 1.2091e-36
5.567e-07 2.5635e-35
5.5707e-07 6.8129e-35
5.5744e-07 1.5339e-34
5.5781e-07 1.4917e-34
5.5819e-07 6.7385e-35
5.5856e-07 2.0595e-35
5.5893e-07 4.6221e-36
5.593e-07 1.9344e-37
5.5968e-07 2.3782e-38
5.6005e-07 1.8224e-38
5.6042e-07 1.5291e-38
5.608e-07 1.4405e-38
5.6117e-07 1.4431e-38
5.6155e-07 1.5658e-38
5.6192e-07 1.8048e-38
5.623e-07 2.2686e-38
5.6267e-07 3.1235e-38
5.6305e-07 7.8142e-38
5.6342e-07 4.6608e-36
5.638e-07 3.7009e-35
5.6418e-07 1.1575e-34
5.6455e-07 1.8404e-34
5.6493e-07 2.0882e-34
5.6531e-07 1.3909e-34
5.6568e-07 8.5495e-35
5.6606e-07 5.6642e-35
5.6644e-07 2.4949e-35
5.6682e-07 6.5202e-36
5.672e-07 6.204e-38
5.6757e-07 2.2764e-38
5.6795e-07 1.5387e-38
5.6833e-07 1.1709e-38
5.6871e-07 9.097e-39
5.6909e-07 7.4435e-39
5.6947e-07 6.1239e-39
5.6985e-07 5.1522e-39
5.7023e-07 4.5109e-39
5.7061e-07 3.601e-39
5.7099e-07 2.6024e-39
5.7137e-07 1.6275e-39
5.7176e-07 1.4642e-39
5.7214e-07 1.9472e-39
5.7252e-07 2.7103e-39
5.729e-07 3.1035e-39
5.7328e-07 4.0017e-39
5.7367e-07 4.4196e-39
5.7405e-07 5.4321e-39
5.7443e-07 6.3716e-39
5.7482e-07 7.8012e-39
5.752e-07 9.8154e-39
5.7558e-07 1.3411e-38
5.7597e-07 1.9308e-38
5.7635e-07 2.9159e-38
5.7674e-07 4.5161e-38
5.7712e-07 1.8244e-36
5.7751e-07 3.5327e-36
5.7789e-07 5.5658e-35
5.7828e-07 1.7598e-34
5.7866e-07 2.8991e-34
5.7905e-07 2.0148e-34
5.7944e-07 7.1647e-35
5.7982e-07 2.5327e-35
5.8021e-07 1.0344e-36
5.806e-07 1.4338e-37
5.8098e-07 1.5581e-37
5.8137e-07 5.4027e-37
5.8176e-07 3.4329e-35
5.8215e-07 1.6336e-34
5.8254e-07 7.0634e-34
5.8293e-07 7.4333e-34
5.8331e-07 4.4841e-34
5.837e-07 3.4524e-34
5.8409e-07 2.1998e-34
5.8448e-07 1.2853e-34
5.8487e-07 8.9884e-35
5.8526e-07 3.51e-35
5.8565e-07 8.153e-35
5.8605e-07 1.6371e-34
5.8644e-07 2.1279e-34
5.8683e-07 1.8173e-34
5.8722e-07 1.3528e-34
5.8761e-07 1.9714e-34
5.88e-07 3.5451e-34
5.884e-07 3.7537e-34
5.8879e-07 1.7782e-34
5.8918e-07 7.466e-35
5.8958e-07 1.0698e-35
5.8997e-07 5.2983e-37
5.9036e-07 6.0007e-38
5.9076e-07 4.2502e-38
5.9115e-07 3.2708e-38
5.9155e-07 2.7023e-38
5.9194e-07 2.4149e-38
5.9234e-07 2.1402e-38
5.9273e-07 2.0044e-38
5.9313e-07 1.93e-38
5.9352e-07 2.0087e-38
5.9392e-07 2.2769e-38
5.9431e-07 2.7279e-38
5.9471e-07 3.642e-38
5.9511e-07 5.5764e-38
5.9551e-07 1.1972e-36
5.959e-07 1.4602e-35
5.963e-07 6.0141e-35
5.967e-07 2.1309e-34
5.971e-07 3.0973e-34
5.975e-07 2.9674e-34
5.9789e-07 1.1978e-34
5.9829e-07 4.6936e-35
5.9869e-07 4.3959e-35
5.9909e-07 3.3378e-35
5.9949e-07 3.6724e-35
5.9989e-07 2.0865e-35
6.0029e-07 1.0993e-35
6.0069e-07 2.5972e-37
6.0109e-07 2.2122e-37
6.015e-07 6.3519e-38
6.019e-07 7.8277e-38
6.023e-07 1.0331e-37
6.027e-07 1.4542e-37
6.031e-07 2.3523e-37
6.0351e-07 8.3458e-36
6.0391e-07 1.4731e-34
6.0431e-07 4.375e-34
6.0471e-07 7.1669e-34
6.0512e-07 7.2057e-34
6.0552e-07 6.8374e-34
6.0593e-07 4.6242e-34
6.0633e-07 3.5813e-34
6.0674e-07 1.577e-34
6.0714e-07 2.649e-35
6.0755e-07 1.7531e-36
6.0795e-07 1.1456e-36
6.0836e-07 1.0856e-34
6.0876e-07 4.2109e-34
6.0917e-07 1.2479e-33
6.0958e-07 1.0589e-33
6.0998e-07 9.8154e-34
6.1039e-07 5.529e-34
6.108e-07 3.7712e-34
6.112e-07 2.3528e-34
6.1161e-07 1.3336e-34
6.1202e-07 6.7508e-35
6.1243e-07 6.5191e-35
6.1284e-07 1.5238e-34
6.1325e-07 1.6809e-34
6.1366e-07 9.5913e-35
6.1407e-07 7.3581e-35
6.1448e-07 1.4159e-34
6.1489e-07 1.5833e-34
6.153e-07 1.0963e-34
6.1571e-07 1.0346e-34
6.1612e-07 7.42e-35
6.1653e-07 1.9301e-35
6.1694e-07 4.3932e-36
6.1735e-07 1.2859e-37
6.1776e-07 4.6492e-38
6.1818e-07 4.1909e-38
6.1859e-07 4.6227e-38
6.19e-07 1.1312e-37
6.1942e-07 3.567e-36
6.1983e-07 5.9222e-35
6.2024e-07 1.0504e-34
6.2066e-07 1.8449e-34
6.2107e-07 1.8055e-34
6.2149e-07 6.2455e-35
6.219e-07 2.0717e-35
6.2232e-07 4.8528e-37
6.2273e-07 1.3304e-37
6.2315e-07 7.6752e-38
6.2356e-07 7.9139e-38
6.2398e-07 8.8521e-38
6.2439e-07 1.0474e-37
6.2481e-07 1.289e-37
6.2523e-07 1.6653e-37
6.2565e-07 2.2821e-37
6.2606e-07 3.4495e-37
6.2648e-07 1.0807e-36
6.269e-07 6.3716e-35
6.2732e-07 5.2575e-34
6.2774e-07 1.1844e-33
6.2816e-07 1.5023e-33
6.2857e-07 1.2405e-33
6.2899e-07 1.0366e-33
6.2941e-07 5.5372e-34
6.2983e-07 4.2748e-34
6.3025e-07 1.9762e-34
6.3068e-07 1.3009e-34
6.311e-07 2.5647e-34
6.3152e-07 2.6685e-34
6.3194e-07 3.1978e-34
6.3236e-07 2.5917e-34
6.3278e-07 1.2665e-34
6.3321e-07 3.6523e-35
6.3363e-07 1.0118e-35
6.3405e-07 1.304e-37
6.3447e-07 8.1614e-38
6.349e-07 6.5052e-38
6.3532e-07 5.3957e-38
6.3575e-07 4.3601e-38
6.3617e-07 3.3867e-38
6.3659e-07 2.6726e-38
6.3702e-07 2.2385e-38
6.3744e-07 1.9937e-38
6.3787e-07 1.8945e-38
6.383e-07 1.9736e-38
6.3872e-07 2.167e-38
6.3915e-07 2.5738e-38
6.3957e-07 3.1949e-38
6.4e-07 4.2994e-38
6.4043e-07 7.6042e-38
6.4086e-07 6.3397e-36
6.4128e-07 1.8963e-35
6.4171e-07 1.0026e-34
6.4214e-07 2.6454e-34
6.4257e-07 4.2676e-34
6.43e-07 3.7648e-34
6.4343e-07 1.553e-34
6.4386e-07 5.7864e-35
6.4429e-07 2.4224e-36
6.4472e-07 2.4746e-37
6.4515e-07 1.2122e-37
6.4558e-07 1.1802e-37
6.4601e-07 1.2761e-37
6.4644e-07 1.47e-37
6.4687e-07 1.8689e-37
6.473e-07 2.6187e-37
6.4773e-07 3.814e-37
6.4817e-07 5.5805e-37
6.486e-07 1.1079e-36
6.4903e-07 5.8279e-35
6.4946e-07 7.8846e-34
6.499e-07 1.9421e-33
6.5033e-07 2.2553e-33
6.5077e-07 2.0199e-33
6.512e-07 1.3527e-33
6.5164e-07 1.5016e-33
6.5207e-07 1.2795e-33
6.5251e-07 6.6604e-34
6.5294e-07 4.7194e-34
6.5338e-07 2.2423e-34
6.5381e-07 9.1741e-35
6.5425e-07 2.1371e-35
6.5469e-07 1.9416e-34
6.5512e-07 2.3133e-33
6.5556e-07 8.0515e-33
6.56e-07 1.2422e-32
6.5644e-07 7.7986e-33
6.5687e-07 8.6428e-33
6.5731e-07 5.3977e-33
6.5775e-07 4.0568e-33
6.5819e-07 2.8374e-33
6.5863e-07 1.2572e-33
6.5907e-07 7.0633e-34
6.5951e-07 4.2893e-34
6.5995e-07 5.2201e-34
6.6039e-07 2.1624e-33
6.6083e-07 4.8793e-33
6.6127e-07 4.811e-33
6.6171e-07 3.7358e-33
6.6215e-07 3.0523e-33
6.626e-07 2.2739e-33
6.6304e-07 1.3695e-33
6.6348e-07 7.5966e-34
6.6392e-07 5.958e-34
6.6437e-07 5.0304e-34
6.6481e-07 4.1542e-34
6.6525e-07 2.574e-34
6.657e-07 2.1249e-34
6.6614e-07 1.3536e-34
6.6659e-07 8.6165e-35
6.6703e-07 3.3096e-35
6.6748e-07 1.2256e-34
6.6792e-07 2.1291e-34
6.6837e-07 2.3109e-34
6.6881e-07 2.0403e-34
6.6926e-07 1.6104e-34
6.6971e-07 2.3649e-34
6.7015e-07 2.551e-34
6.706e-07 2.7202e-34
6.7105e-07 1.0093e-34
6.715e-07 3.5942e-35
6.7195e-07 3.757e-36
6.7239e-07 2.0678e-37
6.7284e-07 5.7808e-38
6.7329e-07 4.1143e-38
6.7374e-07 3.1736e-38
6.7419e-07 2.549e-38
6.7464e-07 2.1532e-38
6.7509e-07 1.8594e-38
6.7554e-07 1.6412e-38
6.7599e-07 1.5078e-38
6.7644e-07 1.4383e-38
6.769e-07 1.3571e-38
6.7735e-07 1.3208e-38
6.778e-07 1.3391e-38
6.7825e-07 1.4421e-38
6.787e-07 1.6241e-38
6.7916e-07 1.9067e-38
6.7961e-07 2.4089e-38
6.8006e-07 3.3104e-38
6.8052e-07 5.601e-38
6.8097e-07 4.2394e-36
6.8143e-07 2.9786e-35
6.8188e-07 8.0101e-35
6.8234e-07 1.7727e-34
6.8279e-07 2.8162e-34
6.8325e-07 2.0801e-34
6.837e-07 9.4872e-35
6.8416e-07 2.7056e-35
6.8462e-07 1.5807e-36
6.8507e-07 2.3062e-37
6.8553e-07 3.775e-38
6.8599e-07 2.6235e-38
6.8645e-07 2.0182e-38
6.869e-07 1.6775e-38
6.8736e-07 1.5244e-38
6.8782e-07 1.0347e-38
6.8828e-07 1.2181e-38
6.8874e-07 1.1825e-38
6.892e-07 1.2972e-38
6.8966e-07 1.3327e-38
6.9012e-07 1.4882e-38
6.9058e-07 1.5512e-38
6.9104e-07 1.7103e-38
6.915e-07 2.1185e-38
6.9196e-07 2.7778e-38
6.9243e-07 3.6994e-38
6.9289e-07 5.2635e-38
6.9335e-07 1.0761e-37
6.9381e-07 1.8202e-35
6.9428e-07 4.7109e-35
6.9474e-07 1.4075e-34
6.952e-07 3.5689e-34
6.9567e-07 5.5626e-34
6.9613e-07 4.6942e-34
6.966e-07 2.1137e-34
6.9706e-07 7.8344e-35
6.9753e-07 4.4895e-36
6.9799e-07 4.8482e-37
6.9846e-07 7.6203e-38
6.9892e-07 5.4809e-38
6.9939e-07 4.2631e-38
6.9986e-07 4.1173e-38
7.0032e-07 6.1669e-38
7.0079e-07 1.081e-37
7.0126e-07 1.5999e-37
7.0173e-07 2.0943e-37
7.022e-07 2.6017e-37
7.0267e-07 3.0838e-37
7.0313e-07 3.4981e-37
7.036e-07 3.9755e-37
7.0407e-07 4.708e-37
7.0454e-07 5.5047e-37
7.0501e-07 6.6095e-37
7.0548e-07 1.0205e-36
7.0595e-07 2.4043e-36
7.0643e-07 5.3558e-35
7.069e-07 1.6227e-34
7.0737e-07 3.6706e-34
7.0784e-07 6.1281e-34
7.0831e-07 3.8637e-34
7.0879e-07 2.2328e-34
7.0926e-07 2.8041e-34
7.0973e-07 2.3561e-33
7.1021e-07 1.4422e-32
7.1068e-07 1.8992e-32
7.1115e-07 1.6644e-32
7.1163e-07 1.3247e-32
7.121e-07 1.0688e-32
7.1258e-07 7.7755e-33
7.1306e-07 5.0129e-33
7.1353e-07 2.7377e-33
7.1401e-07 1.3796e-33
7.1448e-07 8.4058e-34
7.1496e-07 2.2194e-33
7.1544e-07 2.2248e-32
7.1592e-07 5.9894e-32
7.1639e-07 5.624e-32
7.1687e-07 3.652e-32
7.1735e-07 2.7982e-32
7.1783e-07 2.0867e-32
7.1831e-07 2.0363e-32
7.1879e-07 9.5623e-33
7.1927e-07 8.8451e-33
7.1975e-07 5.3903e-33
7.2023e-07 4.5507e-33
7.2071e-07 3.2961e-33
7.2119e-07 2.4431e-33
7.2167e-07 2.6968e-33
7.2215e-07 5.2587e-33
7.2263e-07 1.2991e-32
7.2312e-07 1.2476e-32
7.236e-07 9.3618e-33
7.2408e-07 7.3477e-33
7.2457e-07 7.537e-33
7.2505e-07 3.2804e-33
7.2553e-07 3.566e-33
7.2602e-07 1.1293e-33
7.265e-07 7.3355e-34
7.2699e-07 7.6216e-34
7.2747e-07 1.6374e-33
7.2796e-07 1.7577e-33
7.2844e-07 1.6706e-33
7.2893e-07 1.2014e-33
7.2942e-07 1.5308e-33
7.299e-07 9.853e-34
7.3039e-07 5.7782e-34
7.3088e-07 2.546e-34
7.3137e-07 5.8932e-35
7.3185e-07 5.4712e-36
7.3234e-07 1.8265e-35
7.3283e-07 1.6375e-34
7.3332e-07 3.8176e-34
7.3381e-07 4.4287e-34
7.343e-07 3.4689e-34
7.3479e-07 3.023e-34
7.3528e-07 2.3283e-34
7.3577e-07 1.6875e-34
7.3626e-07 1.0967e-34
7.3675e-07 3.6134e-35
7.3724e-07 1.143e-35
7.3774e-07 2.9476e-37
7.3823e-07 3.5653e-36
7.3872e-07 4.3774e-35
7.3921e-07 1.4375e-34
7.3971e-07 2.7647e-34
7.402e-07 3.196e-34
7.407e-07 1.3599e-34
7.4119e-07 3.8152e-35
7.4169e-07 9.6938e-36
7.4218e-07 5.7579e-37
7.4268e-07 4.4343e-38
7.4317e-07 3.0569e-38
7.4367e-07 2.2931e-38
7.4416e-07 1.7868e-38
7.4466e-07 1.3692e-38
7.4516e-07 1.0598e-38
7.4565e-07 8.5523e-39
7.4615e-07 6.6404e-39
7.4665e-07 5.7527e-39
7.4715e-07 5.6321e-39
7.4765e-07 6.3436e-39
7.4815e-07 6.7715e-39
7.4865e-07 6.9786e-39
7.4915e-07 7.2171e-39
7.4965e-07 7.419e-39
7.5015e-07 7.6351e-39
7.5065e-07 7.8834e-39
7.5115e-07 8.3604e-39
7.5165e-07 8.9366e-39
7.5215e-07 1.0231e-38
7.5265e-07 1.1968e-38
7.5315e-07 1.4206e-38
7.5366e-07 1.7176e-38
7.5416e-07 2.1613e-38
7.5466e-07 2.7823e-38
7.5517e-07 3.7789e-38
7.5567e-07 5.6313e-38
7.5618e-07 2.7135e-36
7.5668e-07 5.2613e-36
7.5719e-07 3.8777e-35
7.5769e-07 1.3125e-34
7.582e-07 2.7613e-34
7.587e-07 3.4825e-34
7.5921e-07 2.6136e-34
7.5972e-07 1.7271e-34
7.6022e-07 7.8512e-35
7.6073e-07 6.6103e-36
7.6124e-07 2.6515e-37
7.6175e-07 4.2593e-38
7.6225e-07 3.5307e-38
7.6276e-07 2.7887e-38
7.6327e-07 2.393e-38
7.6378e-07 2.0125e-38
7.6429e-07 1.8034e-38
7.648e-07 1.6638e-38
7.6531e-07 1.5119e-38
7.6582e-07 1.6201e-38
7.6633e-07 1.6186e-38
7.6685e-07 1.7101e-38
7.6736e-07 1.854e-38
7.6787e-07 2.0664e-38
7.6838e-07 2.5744e-38
7.689e-07 3.2084e-38
7.6941e-07 1.173e-37
7.6992e-07 4.6915e-37
7.7044e-07 1.1893e-36
7.7095e-07 2.126e-36
7.7146e-07 1.2416e-35
7.7198e-07 3.7443e-35
7.7249e-07 1.5228e-34
7.7301e-07 3.8893e-34
7.7353e-07 4.8104e-34
7.7404e-07 3.6438e-34
7.7456e-07 1.8362e-34
7.7508e-07 7.0139e-35
7.7559e-07 2.4649e-35
7.7611e-07 1.4479e-35
7.7663e-07 1.4497e-35
7.7715e-07 1.7622e-35
7.7767e-07 2.1691e-35
7.7819e-07 2.714e-35
7.787e-07 3.4886e-35
7.7922e-07 4.677e-35
7.7974e-07 6.7133e-35
7.8026e-07 1.1001e-34
7.8079e-07 1.0318e-33
7.8131e-07 4.3005e-32
7.8183e-07 1.9843e-31
7.8235e-07 3.3319e-31
7.8287e-07 2.7776e-31
7.8339e-07 2.0613e-31
7.8392e-07 1.8441e-31
7.8444e-07 1.6266e-31
7.8496e-07 1.4538e-31
7.8549e-07 7.9176e-32
7.8601e-07 5.189e-32
7.8654e-07 4.0836e-32
7.8706e-07 2.3398e-32
7.8759e-07 4.5049e-32
7.8811e-07 1.3005e-31
7.8864e-07 2.0767e-31
7.8917e-07 1.7397e-31
7.8969e-07 1.1645e-31
7.9022e-07 1.0853e-31
7.9075e-07 8.4373e-32
7.9127e-07 6.2587e-32
7.918e-07 3.6113e-32
7.9233e-07 2.5123e-32
7.9286e-07 1.5928e-32
7.9339e-07 2.0282e-32
7.9392e-07 2.0194e-32
7.9445e-07 1.7692e-32
7.9498e-07 1.8228e-32
7.9551e-07 1.6751e-32
7.9604e-07 1.2476e-32
7.9657e-07 1.0516e-32
7.971e-07 6.2503e-33
7.9764e-07 4.9279e-33
7.9817e-07 3.7071e-33
7.987e-07 2.7707e-33
7.9923e-07 2.3666e-33
7.9977e-07 2.4773e-33
8.003e-07 1.6262e-33
8.0083e-07 8.6332e-34
8.0137e-07 1.3766e-33
8.019e-07 5.2026e-33
8.0244e-07 1.0742e-32
8.0297e-07 9.2602e-33
8.0351e-07 5.0445e-33
8.0405e-07 5.9306e-33
8.0458e-07 4.5625e-33
8.0512e-07 3.5018e-33
8.0566e-07 2.6131e-33
8.062e-07 9.7266e-34
8.0673e-07 9.1864e-34
8.0727e-07 7.0412e-34
8.0781e-07 5.8786e-34
8.0835e-07 4.758e-34
8.0889e-07 1.1956e-33
8.0943e-07 2.0718e-33
8.0997e-07 2.8642e-33
8.1051e-07 1.8722e-33
8.1105e-07 1.5975e-33
8.1159e-07 1.9833e-33
8.1213e-07 2.4463e-33
8.1268e-07 1.6592e-33
8.1322e-07 8.2589e-34
8.1376e-07 3.5304e-34
8.1431e-07 1.5245e-34
8.1485e-07 4.8411e-35
8.1539e-07 8.6468e-37
8.1594e-07 6.2348e-37
8.1648e-07 6.6981e-37
8.1703e-07 7.9832e-37
8.1757e-07 1.0275e-36
8.1812e-07 1.25e-35
8.1866e-07 1.0049e-34
8.1921e-07 1.279e-33
8.1976e-07 4.1575e-33
8.203e-07 6.0861e-33
8.2085e-07 4.6587e-33
8.214e-07 4.8592e-33
8.2195e-07 3.4766e-33
8.225e-07 4.017e-33
8.2304e-07 2.5254e-33
8.2359e-07 1.3882e-33
8.2414e-07 7.9194e-34
8.2469e-07 3.9142e-34
8.2524e-07 2.8632e-34
8.258e-07 4.2499e-34
8.2635e-07 4.4851e-34
8.269e-07 2.4326e-34
8.2745e-07 1.3032e-34
8.28e-07 2.682e-33
8.2855e-07 7.8687e-33
8.2911e-07 1.5902e-32
8.2966e-07 1.5157e-32
8.3021e-07 1.2182e-32
8.3077e-07 9.3445e-33
8.3132e-07 1.0692e-32
8.3188e-07 9.219e-33
8.3243e-07 4.6488e-33
8.3299e-07 3.4562e-33
8.3354e-07 2.4156e-33
8.341e-07 1.8443e-33
8.3466e-07 8.4919e-34
8.3522e-07 2.4196e-34
8.3577e-07 7.4896e-36
8.3633e-07 2.2828e-36
8.3689e-07 5.1257e-35
8.3745e-07 1.5736e-33
8.3801e-07 3.5744e-33
8.3857e-07 5.5337e-33
8.3913e-07 5.2495e-33
8.3969e-07 2.9899e-33
8.4025e-07 2.9525e-33
8.4081e-07 2.7714e-33
8.4137e-07 3.1759e-33
8.4193e-07 1.3661e-33
8.4249e-07 1.0993e-33
8.4305e-07 3.9488e-34
8.4362e-07 1.0273e-34
8.4418e-07 2.1501e-35
8.4474e-07 4.5663e-36
8.4531e-07 3.9511e-37
8.4587e-07 3.0294e-37
8.4644e-07 2.548e-37
8.47e-07 2.2061e-37
8.4757e-07 2.026e-37
8.4813e-07 2.0058e-37
8.487e-07 2.133e-37
8.4926e-07 3.2284e-37
8.4983e-07 1.1096e-36
8.504e-07 7.023e-35
8.5097e-07 2.431e-34
8.5153e-07 6.1935e-34
8.521e-07 8.8299e-34
8.5267e-07 1.1689e-33
8.5324e-07 1.1171e-33
8.5381e-07 6.1707e-34
8.5438e-07 2.7238e-34
8.5495e-07 1.1451e-34
8.5552e-07 2.8396e-35
8.5609e-07 2.087e-35
8.5666e-07 2.4563e-35
8.5723e-07 2.8313e-35
8.5781e-07 3.2156e-35
8.5838e-07 3.5951e-35
8.5895e-07 4.0475e-35
8.5952e-07 4.4899e-35
8.601e-07 4.7342e-35
8.6067e-07 4.7085e-35
8.6125e-07 4.4734e-35
8.6182e-07 4.9053e-35
8.624e-07 7.4375e-35
8.6297e-07 1.6515e-34
8.6355e-07 1.9108e-34
8.6412e-07 2.1819e-34
8.647e-07 2.0774e-34
8.6528e-07 2.6325e-34
8.6586e-07 2.623e-34
8.6643e-07 3.0452e-34
8.6701e-07 4.9806e-34
8.6759e-07 3.3444e-32
8.6817e-07 2.3292e-31
8.6875e-07 7.313e-31
8.6933e-07 1.1089e-30
8.6991e-07 9.2346e-31
8.7049e-07 6.6996e-31
8.7107e-07 5.8933e-31
8.7165e-07 5.19e-31
8.7223e-07 3.2966e-31
8.7282e-07 2.8451e-31
8.734e-07 2.7688e-31
8.7398e-07 2.4274e-31
8.7457e-07 1.6396e-31
8.7515e-07 1.1555e-31
8.7573e-07 9.5934e-32
8.7632e-07 8.0578e-32
8.769e-07 6.7019e-32
8.7749e-07 4.9025e-32
8.7807e-07 3.7958e-32
8.7866e-07 3.1211e-32
8.7925e-07 2.0088e-32
8.7983e-07 1.6411e-32
8.8042e-07 1.2769e-32
8.8101e-07 9.4346e-33
8.816e-07 6.1315e-33
8.8218e-07 3.9449e-33
8.8277e-07 2.3005e-33
8.8336e-07 1.6978e-33
8.8395e-07 9.6561e-34
8.8454e-07 1.1712e-33
8.8513e-07 1.5826e-33
8.8572e-07 1.9629e-33
8.8631e-07 2.1619e-33
8.8691e-07 1.0973e-33
8.875e-07 5.8814e-34
8.8809e-07 3.9456e-34
8.8868e-07 1.5801e-34
8.8928e-07 1.2993e-34
8.8987e-07 4.9391e-35
8.9046e-07 1.0464e-35
8.9106e-07 1.0179e-35
8.9165e-07 1.8835e-34
8.9225e-07 4.6641e-33
8.9284e-07 1.9985e-32
8.9344e-07 3.732e-32
8.9404e-07 3.6771e-32
8.9463e-07 2.1713e-32
8.9523e-07 2.0173e-32
8.9583e-07 2.0435e-32
8.9642e-07 1.5034e-32
8.9702e-07 9.2411e-33
8.9762e-07 8.4082e-33
8.9822e-07 9.2433e-33
8.9882e-07 8.7477e-33
8.9942e-07 3.7711e-33
9.0002e-07 3.6172e-33
9.0062e-07 3.0443e-33
9.0122e-07 2.8056e-33
9.0182e-07 1.6734e-33
9.0243e-07 8.7422e-34
9.0303e-07 4.0023e-34
9.0363e-07 1.0201e-34
9.0423e-07 3.6108e-35
9.0484e-07 9.201e-36
9.0544e-07 1.187e-35
9.0605e-07 1.6907e-35
9.0665e-07 2.0151e-34
9.0726e-07 1.6475e-33
9.0786e-07 1.5328e-32
9.0847e-07 4.6459e-32
9.0907e-07 7.7599e-32
9.0968e-07 7.5945e-32
9.1029e-07 5.1831e-32
9.1089e-07 5.3069e-32
9.115e-07 5.0398e-32
9.1211e-07 3.7613e-32
9.1272e-07 3.0133e-32
9.1333e-07 1.654e-32
9.1394e-07 8.5617e-33
9.1455e-07 5.116e-33
9.1516e-07 2.0565e-33
9.1577e-07 1.2553e-33
9.1638e-07 1.1634e-33
9.1699e-07 1.4642e-33
9.176e-07 1.4034e-33
9.1822e-07 7.1289e-34
9.1883e-07 9.5491e-34
9.1944e-07 4.6439e-33
9.2006e-07 7.1279e-32
9.2067e-07 2.9399e-31
9.2129e-07 5.0274e-31
9.219e-07 4.7319e-31
9.2252e-07 3.1298e-31
9.2313e-07 3.3271e-31
9.2375e-07 3.1939e-31
9.2436e-07 3.1122e-31
9.2498e-07 2.1472e-31
9.256e-07 1.1718e-31
9.2622e-07 7.8099e-32
9.2683e-07 3.1076e-32
9.2745e-07 3.6842e-32
9.2807e-07 1.4227e-32
9.2869e-07 2.226e-32
9.2931e-07 6.4622e-33
9.2993e-07 1.5326e-32
9.3055e-07 1.7899e-31
9.3117e-07 3.1572e-31
9.3179e-07 4.4947e-31
9.3242e-07 3.2043e-31
9.3304e-07 3.0163e-31
9.3366e-07 2.3253e-31
9.3429e-07 2.3826e-31
9.3491e-07 2.9757e-31
9.3553e-07 2.1295e-31
9.3616e-07 1.378e-31
9.3678e-07 9.6135e-32
9.3741e-07 5.9648e-32
9.3803e-07 3.0252e-32
9.3866e-07 2.5776e-32
9.3929e-07 1.791e-32
9.3991e-07 1.8503e-32
9.4054e-07 1.7436e-32
9.4117e-07 1.3371e-32
9.418e-07 8.8605e-33
9.4242e-07 6.6397e-33
9.4305e-07 5.0305e-33
9.4368e-07 6.972e-33
9.4431e-07 2.7146e-32
9.4494e-07 5.0224e-32
9.4557e-07 5.8343e-32
9.462e-07 3.2098e-32
9.4684e-07 1.861e-32
9.4747e-07 1.9982e-32
9.481e-07 2.3177e-32
9.4873e-07 1.4151e-32
9.4937e-07 1.805e-32
9.5e-07 8.7605e-33
