2.8e-07 -0
2.8023e-07 -0
2.8047e-07 -0
2.807e-07 -0
2.8094e-07 -0
2.8117e-07 -0
2.814e-07 -0
2.8164e-07 -0
2.8187e-07 -0
2.8211e-07 -0
2.8234e-07 -0
2.8258e-07 -0
2.8282e-07 -0
2.8305e-07 -0
2.8329e-07 -0
2.8352e-07 -0
2.8376e-07 -0
2.84e-07 -0
2.8423e-07 -0
2.8447e-07 -0
2.8471e-07 -0
2.8495e-07 -0
2.8518e-07 -0
2.8542e-07 -0
2.8566e-07 -0
2.859e-07 -0
2.8614e-07 -0
2.8638e-07 -0
2.8661e-07 -0
2.8685e-07 -0
2.8709e-07 -0
2.8733e-07 -0
2.8757e-07 -0
2.8781e-07 -0
2.8805e-07 -0
2.8829e-07 -0
2.8853e-07 -0
2.8877e-07 -0
2.8901e-07 -0
2.8926e-07 -0
2.895e-07 -0
2.8974e-07 -0
2.8998e-07 -0
2.9022e-07 -0
2.9046e-07 -0
2.9071e-07 -0
2.9095e-07 -0
2.9119e-07 -0
2.9143e-07 -0
2.9168e-07 -0
2.9192e-07 -0
2.9216e-07 -0
2.9241e-07 -0
2.9265e-07 -0
2.929e-07 -0
2.9314e-07 -0
2.9339e-07 -0
2.9363e-07 -0
2.9388e-07 -0
2.9412e-07 -0
2.9437e-07 -0
2.9461e-07 -0
2.9486e-07 -0
2.951e-07 -0
2.9535e-07 -0
2.956e-07 -0
2.9584e-07 -0
2.9609e-07 -0
2.9634e-07 -0
2.9658e-07 -0
2.9683e-07 -0
2.9708e-07 -0
2.9733e-07 -0
2.9757e-07 -0
2.9782e-07 -0
2.9807e-07 -0
2.9832e-07 -0
2.9857e-07 -0
2.9882e-07 -0
2.9907e-07 -0
2.9932e-07 -0
2.9957e-07 -0
2.9982e-07 -0
3.0007e-07 -0
3.0032e-07 -0
3.0057e-07 -0
3.0082e-07 -0
3.0107e-07 -0
3.0132e-07 -0
3.0157e-07 -0
3.0182e-07 -0
3.0207e-07 -0
3.0233e-07 -0
3.0258e-07 -0
3.0283e-07 -0
3.0308e-07 -0
3.0334e-07 -0
3.0359e-07 -0
3.0384e-07 -0
3.041e-07 -0
3.0435e-07 -0
3.046e-07 -0
3.0486e-07 -0
3.0511e-07 -0
3.0537e-07 -0
3.0562e-07 -0
3.0588e-07 -0
3.0613e-07 -0
3.0639e-07 -0
3.0664e-07 -0
3.069e-07 -0
3.0715e-07 -0
3.0741e-07 -0
3.0767e-07 -0
3.0792e-07 -0
3.0818e-07 -0
3.0844e-07 -0
3.087e-07 -0
3.0895e-07 -0
3.0921e-07 -0
3.0947e-07 -0
3.0973e-07 -0
3.0998e-07 -0
3.1024e-07 -0
3.105e-07 -0
3.1076e-07 -0
3.1102e-07 -0
3.1128e-07 -0
3.1154e-07 -0
3.118e-07 -0
3.1206e-07 -0
3.1232e-07 -0
3.1258e-07 -0
3.1284e-07 -0
3.131e-07 -0
3.1336e-07 -0
3.1362e-07 -0
3.1389e-07 -0
3.1415e-07 -0
3.1441e-07 -0
3.1467e-07 -0
3.1494e-07 -0
3.152e-07 -0
3.1546e-07 -0
3.1572e-07 -0
3.1599e-07 -0
3.1625e-07 -0
3.1651e-07 -0
3.1678e-07 -0
3.1704e-07 -0
3.1731e-07 -0
3.1757e-07 -0
3.1784e-07 -0
3.181e-07 -0
3.1837e-07 -0
3.1863e-07 -0
3.189e-07 -0
3.1917e-07 -0
3.1943e-07 -0
3.197e-07 -0
3.1996e-07 -0
3.2023e-07 -0
3.205e-07 -0
3.2077e-07 -0
3.2103e-07 -0
3.213e-07 -0
3.2157e-07 -0
3.2184e-07 -0
3.2211e-07 -0
3.2238e-07 -0
3.2264e-07 -0
3.2291e-07 -0
3.2318e-07 -0
3.2345e-07 -0
3.2372e-07 -0
3.2399e-07 -0
3.2426e-07 -0
3.2453e-07 -0
3.248e-07 -0
3.2507e-07 -0
3.2535e-07 -0
3.2562e-07 -0
3.2589e-07 -0
3.2616e-07 -0
3.2643e-07 -0
3.2671e-07 -0
3.2698e-07 -0
3.2725e-07 -0
3.2752e-07 -0
3.278e-07 -0
3.2807e-07 -0
3.2834e-07 -0
3.2862e-07 -0
3.2889e-07 -0
3.2917e-07 -0
3.2944e-07 -0
3.2972e-07 -0
3.2999e-07 -0
3.3027e-07 -0
3.3054e-07 -0
3.3082e-07 -0
3.3109e-07 -0
3.3137e-07 -0
3.3165e-07 -0
3.3192e-07 -0
3.322e-07 -0
3.3248e-07 -0
3.3275e-07 -0
3.3303e-07 -0
3.3331e-07 -0
3.3359e-07 -0
3.3387e-07 -0
3.3414e-07 -0
3.3442e-07 -0
3.347e-07 -0
3.3498e-07 -0
3.3526e-07 -0
3.3554e-07 -0
3.3582e-07 -0
3.361e-07 -0
3.3638e-07 -0
3.3666e-07 -0
3.3694e-07 -0
3.3722e-07 -0
3.375e-07 -0
3.3779e-07 -0
3.3807e-07 -0
3.3835e-07 -0
3.3863e-07 -0
3.3891e-07 -0
3.392e-07 -0
3.3948e-07 -0
3.3976e-07 -0
3.4005e-07 -0
3.4033e-07 -0
3.4061e-07 -0
3.409e-07 -0
3.4118e-07 -0
3.4147e-07 -0
3.4175e-07 -0
3.4204e-07 -0
3.4232e-07 -0
3.4261e-07 -0
3.4289e-07 -0
3.4318e-07 -0
3.4347e-07 -0
3.4375e-07 -0
3.4404e-07 -0
3.4433e-07 -0
3.4461e-07 -0
3.449e-07 -0
3.4519e-07 -0
3.4548e-07 -0
3.4577e-07 -0
3.4605e-07 -0
3.4634e-07 -0
3.4663e-07 -0
3.4692e-07 -0
3.4721e-07 -0
3.475e-07 -0
3.4779e-07 -0
3.4808e-07 -0
3.4837e-07 -0
3.4866e-07 -0
3.4895e-07 -0
3.4924e-07 -0
3.4953e-07 -0
3.4983e-07 -0
3.5012e-07 -0
3.5041e-07 -0
3.507e-07 -0
3.5099e-07 -0
3.5129e-07 -0
3.5158e-07 -0
3.5187e-07 -0
3.5217e-07 -0
3.5246e-07 -0
3.5276e-07 -0
3.5305e-07 -0
3.5334e-07 -0
3.5364e-07 -0
3.5393e-07 -0
3.5423e-07 -0
3.5452e-07 -0
3.5482e-07 -0
3.5512e-07 -0
3.5541e-07 -0
3.5571e-07 -0
3.5601e-07 -0
3.563e-07 -0
3.566e-07 -0
3.569e-07 -0
3.572e-07 -0
3.5749e-07 -0
3.5779e-07 -0
3.5809e-07 -0
3.5839e-07 -0
3.5869e-07 -0
3.5899e-07 -0
3.5929e-07 -0
3.5959e-07 -0
3.5989e-07 -0
3.6019e-07 -0
3.6049e-07 -0
3.6079e-07 -0
3.6109e-07 -0
3.6139e-07 -0
3.6169e-07 -0
3.6199e-07 -0
3.623e-07 -0
3.626e-07 -0
3.629e-07 -0
3.632e-07 -0
3.6351e-07 -0
3.6381e-07 -0
3.6411e-07 -0
3.6442e-07 -0
3.6472e-07 -0
3.6502e-07 -0
3.6533e-07 -0
3.6563e-07 -0
3.6594e-07 -0
3.6624e-07 -0
3.6655e-07 -0
3.6686e-07 -0
3.6716e-07 -0
3.6747e-07 -0
3.6777e-07 -0
3.6808e-07 -0
3.6839e-07 -0
3.687e-07 -0
3.69e-07 -0
3.6931e-07 -0
3.6962e-07 -0
3.6993e-07 -0
3.7024e-07 -0
3.7054e-07 -0
3.7085e-07 -0
3.7116e-07 -0
3.7147e-07 -0
3.7178e-07 -0
3.7209e-07 -0
3.724e-07 -0
3.7271e-07 -0
3.7302e-07 -0
3.7334e-07 -0
3.7365e-07 -0
3.7396e-07 -0
3.7427e-07 -0
3.7458e-07 -0
3.749e-07 -0
3.7521e-07 -0
3.7552e-07 -0
3.7583e-07 -0
3.7615e-07 -0
3.7646e-07 -0
3.7678e-07 -0
3.7709e-07 -0
3.7741e-07 -0
3.7772e-07 -0
3.7804e-07 -0
3.7835e-07 -0
3.7867e-07 -0
3.7898e-07 -0
3.793e-07 -0
3.7961e-07 -0
3.7993e-07 -0
3.8025e-07 -0
3.8057e-07 -0
3.8088e-07 -0
3.812e-07 -0
3.8152e-07 -0
3.8184e-07 -0
3.8216e-07 -0
3.8247e-07 -0
3.8279e-07 -0
3.8311e-07 -0
3.8343e-07 -0
3.8375e-07 -0
3.8407e-07 -0
3.8439e-07 -0
3.8471e-07 -0
3.8503e-07 -0
3.8536e-07 -0
3.8568e-07 -0
3.86e-07 -0
3.8632e-07 -0
3.8664e-07 -0
3.8697e-07 -0
3.8729e-07 -0
3.8761e-07 -0
3.8793e-07 -0
3.8826e-07 -0
3.8858e-07 -0
3.8891e-07 -0
3.8923e-07 -0
3.8956e-07 -0
3.8988e-07 -0
3.9021e-07 -0
3.9053e-07 -0
3.9086e-07 -0
3.9118e-07 -0
3.9151e-07 -0
3.9184e-07 -0
3.9216e-07 -0
3.9249e-07 -0
3.9282e-07 -0
3.9315e-07 -0
3.9347e-07 -0
3.938e-07 -0
3.9413e-07 -0
3.9446e-07 -0
3.9479e-07 -0
3.9512e-07 -0
3.9545e-07 -0
3.9578e-07 -0
3.9611e-07 -0
3.9644e-07 -0
3.9677e-07 -0
3.971e-07 -0
3.9743e-07 -0
3.9776e-07 -0
3.9809e-07 -0
3.9843e-07 -0
3.9876e-07 -0
3.9909e-07 -0
3.9942e-07 -0
3.9976e-07 -0
4.0009e-07 -0
4.0042e-07 -0
4.0076e-07 -0
4.0109e-07 -0
4.0143e-07 -0
4.0176e-07 -0
4.021e-07 -0
4.0243e-07 -0
4.0277e-07 -0
4.031e-07 -0
4.0344e-07 -0
4.0378e-07 -0
4.0411e-07 -0
4.0445e-07 -0
4.0479e-07 -0
4.0513e-07 -0
4.0546e-07 -0
4.058e-07 -0
4.0614e-07 -0
4.0648e-07 -0
4.0682e-07 -0
4.0716e-07 -0
4.075e-07 -0
4.0784e-07 -0
4.0818e-07 -0
4.0852e-07 -0
4.0886e-07 -0
4.092e-07 -0
4.0954e-07 -0
4.0988e-07 -0
4.1023e-07 -0
4.1057e-07 -0
4.1091e-07 -0
4.1125e-07 -0
4.116e-07 -0
4.1194e-07 -0
4.1228e-07 -0
4.1263e-07 -0
4.1297e-07 -0
4.1332e-07 -0
4.1366e-07 -0
4.1401e-07 -0
4.1435e-07 -0
4.147e-07 -0
4.1504e-07 -0
4.1539e-07 -0
4.1574e-07 -0
4.1608e-07 -0
4.1643e-07 -0
4.1678e-07 -0
4.1712e-07 -0
4.1747e-07 -0
4.1782e-07 -0
4.1817e-07 -0
4.1852e-07 -0
4.1887e-07 -0
4.1922e-07 -0
4.1957e-07 -0
4.1992e-07 -0
4.2027e-07 -0
4.2062e-07 -0
4.2097e-07 -0
4.2132e-07 -0
4.2167e-07 -0
4.2202e-07 -0
4.2238e-07 -0
4.2273e-07 -0
4.2308e-07 -0
4.2343e-07 -0
4.2379e-07 -0
4.2414e-07 -0
4.2449e-07 -0
4.2485e-07 -0
4.252e-07 -0
4.2556e-07 -0
4.2591e-07 -0
4.2627e-07 -0
4.2662e-07 -0
4.2698e-07 -0
4.2733e-07 -0
4.2769e-07 -0
4.2805e-07 -0
4.2841e-07 -0
4.2876e-07 -0
4.2912e-07 -0
4.2948e-07 -0
4.2984e-07 -0
4.302e-07 -0
4.3055e-07 -0
4.3091e-07 -0
4.3127e-07 -0
4.3163e-07 -0
4.3199e-07 -0
4.3235e-07 -0
4.3271e-07 -0
4.3307e-07 -0
4.3344e-07 -0
4.338e-07 -0
4.3416e-07 -0
4.3452e-07 -0
4.3488e-07 -0
4.3525e-07 -0
4.3561e-07 -0
4.3597e-07 -0
4.3634e-07 -0
4.367e-07 -0
4.3707e-07 -0
4.3743e-07 -0
4.3779e-07 -0
4.3816e-07 -0
4.3853e-07 -0
4.3889e-07 -0
4.3926e-07 -0
4.3962e-07 -0
4.3999e-07 -0
4.4036e-07 -0
4.4073e-07 -0
4.4109e-07 -0
4.4146e-07 -0
4.4183e-07 -0
4.422e-07 -0
4.4257e-07 -0
4.4294e-07 -0
4.4331e-07 -0
4.4368e-07 -0
4.4405e-07 -0
4.4442e-07 -0
4.4479e-07 -0
4.4516e-07 -0
4.4553e-07 -0
4.459e-07 -0
4.4627e-07 -0
4.4664e-07 -0
4.4702e-07 -0
4.4739e-07 -0
4.4776e-07 -0
4.4814e-07 -0
4.4851e-07 -0
4.4889e-07 -0
4.4926e-07 -0
4.4963e-07 -0
4.5001e-07 -0
4.5038e-07 -0
4.5076e-07 -0
4.5114e-07 -0
4.5151e-07 -0
4.5189e-07 -0
4.5227e-07 -0
4.5264e-07 -0
4.5302e-07 -0
4.534e-07 -0
4.5378e-07 -0
4.5416e-07 -0
4.5454e-07 -0
4.5491e-07 -0
4.5529e-07 -0
4.5567e-07 -0
4.5605e-07 -0
4.5643e-07 -0
4.5682e-07 -0
4.572e-07 -0
4.5758e-07 -0
4.5796e-07 -0
4.5834e-07 -0
4.5872e-07 -0
4.5911e-07 -0
4.5949e-07 -0
4.5987e-07 -0
4.6026e-07 -0
4.6064e-07 -0
4.6102e-07 -0
4.6141e-07 -0
4.6179e-07 -0
4.6218e-07 -0
4.6256e-07 -0
4.6295e-07 -0
4.6334e-07 -0
4.6372e-07 -0
4.6411e-07 -0
4.645e-07 -0
4.6489e-07 -0
4.6527e-07 -0
4.6566e-07 -0
4.6605e-07 -0
4.6644e-07 -0
4.6683e-07 -0
4.6722e-07 -0
4.6761e-07 -0
4.68e-07 -0
4.6839e-07 -0
4.6878e-07 -0
4.6917e-07 -0
4.6956e-07 -0
4.6995e-07 -0
4.7034e-07 -0
4.7074e-07 -0
4.7113e-07 -0
4.7152e-07 -0
4.7192e-07 -0
4.7231e-07 -0
4.727e-07 -0
4.731e-07 -0
4.7349e-07 -0
4.7389e-07 -0
4.7428e-07 -0
4.7468e-07 -0
4.7507e-07 -0
4.7547e-07 -0
4.7587e-07 -0
4.7626e-07 -0
4.7666e-07 -0
4.7706e-07 -0
4.7746e-07 -0
4.7786e-07 -0
4.7825e-07 -0
4.7865e-07 -0
4.7905e-07 -0
4.7945e-07 -0
4.7985e-07 -0
4.8025e-07 -0
4.8065e-07 -0
4.8105e-07 -0
4.8146e-07 -0
4.8186e-07 -0
4.8226e-07 -0
4.8266e-07 -0
4.8306e-07 -0
4.8347e-07 -0
4.8387e-07 -0
4.8427e-07 -0
4.8468e-07 -0
4.8508e-07 -0
4.8549e-07 -0
4.8589e-07 -0
4.863e-07 -0
4.867e-07 -0
4.8711e-07 -0
4.8752e-07 -0
4.8792e-07 -0
4.8833e-07 -0
4.8874e-07 -0
4.8914e-07 -0
4.8955e-07 -0
4.8996e-07 -0
4.9037e-07 -0
4.9078e-07 -0
4.9119e-07 -0
4.916e-07 -0
4.9201e-07 -0
4.9242e-07 -0
4.9283e-07 -0
4.9324e-07 -0
4.9365e-07 -0
4.9406e-07 -0
4.9448e-07 -0
4.9489e-07 -0
4.953e-07 -0
4.9571e-07 -0
4.9613e-07 -0
4.9654e-07 -0
4.9696e-07 5.4658e-41
4.9737e-07 5.9968e-40
4.9779e-07 1.8443e-39
4.982e-07 2.911e-39
4.9862e-07 4.2883e-39
4.9903e-07 5.5252e-39
4.9945e-07 7.1977e-39
4.9986e-07 9.2982e-39
5.0028e-07 1.2868e-38
5.007e-07 1.9775e-38
5.0112e-07 3.4649e-38
5.0154e-07 2.5876e-37
5.0195e-07 3.7156e-35
5.0237e-07 1.7687e-34
5.0279e-07 2.2042e-34
5.0321e-07 1.1888e-34
5.0363e-07 1.3761e-35
5.0405e-07 6.9079e-38
5.0447e-07 2.803e-38
5.0489e-07 1.6485e-38
5.0531e-07 1.0918e-38
5.0573e-07 8.3268e-39
5.0616e-07 6.1983e-39
5.0658e-07 5.0161e-39
5.07e-07 4.1212e-39
5.0742e-07 2.797e-39
5.0785e-07 1.3337e-39
5.0827e-07 5.4346e-40
5.087e-07 -2.1863e-41
5.0912e-07 -5.3097e-41
5.0954e-07 -0
5.0997e-07 -0
5.104e-07 3.1233e-41
5.1082e-07 1.7335e-40
5.1125e-07 1.0042e-39
5.1167e-07 2.5315e-39
5.121e-07 3.8854e-39
5.1253e-07 4.7209e-39
5.1296e-07 6.1951e-39
5.1338e-07 7.9083e-39
5.1381e-07 1.0796e-38
5.1424e-07 1.5119e-38
5.1467e-07 2.2974e-38
5.151e-07 4.1086e-38
5.1553e-07 1.6363e-36
5.1596e-07 3.9882e-35
5.1639e-07 1.6885e-34
5.1682e-07 2.3746e-34
5.1725e-07 1.251e-34
5.1768e-07 2.5254e-35
5.1811e-07 1.5229e-37
5.1855e-07 3.6818e-38
5.1898e-07 2.3909e-38
5.1941e-07 1.8456e-38
5.1984e-07 1.6243e-38
5.2028e-07 1.6398e-38
5.2071e-07 1.8493e-38
5.2115e-07 2.5649e-38
5.2158e-07 4.544e-38
5.2202e-07 4.4256e-36
5.2245e-07 6.8726e-35
5.2289e-07 1.5814e-34
5.2332e-07 1.4003e-34
5.2376e-07 4.2954e-35
5.242e-07 6.4635e-36
5.2464e-07 3.1828e-38
5.2507e-07 1.7533e-38
5.2551e-07 1.131e-38
5.2595e-07 8.3393e-39
5.2639e-07 6.2233e-39
5.2683e-07 4.8224e-39
5.2727e-07 3.7746e-39
5.2771e-07 3.5247e-39
5.2815e-07 3.8136e-39
5.2859e-07 3.6699e-39
5.2903e-07 3.4138e-39
5.2947e-07 3.57e-39
5.2991e-07 4.6944e-39
5.3035e-07 6.3982e-39
5.308e-07 8.6392e-39
5.3124e-07 1.234e-38
5.3168e-07 1.964e-38
5.3213e-07 3.778e-38
5.3257e-07 4.0945e-36
5.3301e-07 5.6665e-35
5.3346e-07 1.7818e-34
5.339e-07 1.4554e-34
5.3435e-07 4.5275e-35
5.3479e-07 2.7848e-36
5.3524e-07 3.61e-38
5.3569e-07 1.9318e-38
5.3613e-07 1.3452e-38
5.3658e-07 1.1192e-38
5.3703e-07 1.0527e-38
5.3748e-07 1.0263e-38
5.3793e-07 1.1021e-38
5.3837e-07 1.2211e-38
5.3882e-07 1.4302e-38
5.3927e-07 1.7847e-38
5.3972e-07 2.3481e-38
5.4017e-07 3.7477e-38
5.4062e-07 8.2781e-38
5.4107e-07 1.2326e-35
5.4153e-07 1.2815e-34
5.4198e-07 2.4325e-34
5.4243e-07 2.3723e-34
5.4288e-07 1.0295e-34
5.4334e-07 6.6727e-35
5.4379e-07 5.9506e-35
5.4424e-07 2.9591e-35
5.447e-07 1.1694e-35
5.4515e-07 9.7693e-38
5.4561e-07 2.3236e-35
5.4606e-07 6.4891e-35
5.4652e-07 1.2195e-34
5.4697e-07 9.4375e-35
5.4743e-07 6.9676e-35
5.4788e-07 9.5535e-36
5.4834e-07 2.2213e-36
5.488e-07 1.0341e-35
5.4926e-07 3.0261e-35
5.4972e-07 1.9214e-34
5.5017e-07 3.0351e-34
5.5063e-07 2.0251e-34
5.5109e-07 3.1971e-35
5.5155e-07 1.6983e-36
5.5201e-07 5.7897e-38
5.5247e-07 3.4402e-38
5.5293e-07 2.3948e-38
5.5339e-07 1.8907e-38
5.5386e-07 1.5831e-38
5.5432e-07 1.5078e-38
5.5478e-07 1.5817e-38
5.5524e-07 1.8963e-38
5.5571e-07 2.6672e-38
5.5617e-07 5.0547e-38
5.5663e-07 1.3319e-35
5.571e-07 9.233e-35
5.5756e-07 1.5392e-34
5.5803e-07 1.2051e-34
5.5849e-07 3.5477e-35
5.5896e-07 5.8148e-36
5.5943e-07 3.5219e-38
5.5989e-07 2.1974e-38
5.6036e-07 1.7375e-38
5.6083e-07 1.5724e-38
5.613e-07 1.6399e-38
5.6176e-07 1.8856e-38
5.6223e-07 2.4186e-38
5.627e-07 3.5857e-38
5.6317e-07 6.8868e-38
5.6364e-07 1.0106e-35
5.6411e-07 1.0194e-34
5.6458e-07 2.0655e-34
5.6505e-07 2.2009e-34
5.6552e-07 9.7088e-35
5.66e-07 5.4132e-35
5.6647e-07 1.9177e-35
5.6694e-07 2.2294e-36
5.6741e-07 3.0496e-38
5.6789e-07 1.8632e-38
5.6836e-07 1.2807e-38
5.6883e-07 9.6261e-39
5.6931e-07 7.5116e-39
5.6978e-07 5.7891e-39
5.7026e-07 4.9364e-39
5.7074e-07 3.6965e-39
5.7121e-07 2.2191e-39
5.7169e-07 1.76e-39
5.7216e-07 2.7517e-39
5.7264e-07 3.0968e-39
5.7312e-07 4.1868e-39
5.736e-07 5.1644e-39
5.7408e-07 6.1014e-39
5.7456e-07 7.9239e-39
5.7503e-07 9.926e-39
5.7551e-07 1.4078e-38
5.7599e-07 2.2105e-38
5.7647e-07 3.6701e-38
5.7696e-07 6.7053e-38
5.7744e-07 1.2683e-35
5.7792e-07 6.5827e-35
5.784e-07 1.9984e-34
5.7888e-07 2.3921e-34
5.7937e-07 1.2081e-34
5.7985e-07 3.4456e-35
5.8033e-07 2.7951e-37
5.8082e-07 1.5398e-37
5.813e-07 2.5313e-37
5.8179e-07 5.6639e-35
5.8227e-07 3.6559e-34
5.8276e-07 6.6e-34
5.8324e-07 4.4459e-34
5.8373e-07 3.0652e-34
5.8422e-07 1.9659e-34
5.8471e-07 6.1954e-35
5.8519e-07 6.264e-35
5.8568e-07 9.4371e-35
5.8617e-07 2.0562e-34
5.8666e-07 2.1366e-34
5.8715e-07 1.6483e-34
5.8764e-07 2.8087e-34
5.8813e-07 3.7847e-34
5.8862e-07 2.8846e-34
5.8911e-07 7.3956e-35
5.896e-07 5.2534e-36
5.9009e-07 9.3794e-38
5.9059e-07 5.4482e-38
5.9108e-07 3.8311e-38
5.9157e-07 2.962e-38
5.9206e-07 2.5872e-38
5.9256e-07 2.343e-38
5.9305e-07 2.2229e-38
5.9355e-07 2.2938e-38
5.9404e-07 2.6706e-38
5.9454e-07 3.4719e-38
5.9503e-07 5.2469e-38
5.9553e-07 3.7348e-37
5.9603e-07 1.7463e-35
5.9652e-07 1.594e-34
5.9702e-07 3.115e-34
5.9752e-07 2.4498e-34
5.9802e-07 8.7403e-35
5.9852e-07 3.9976e-35
5.9902e-07 3.9995e-35
5.9952e-07 3.1081e-35
6.0002e-07 1.6882e-35
6.0052e-07 7.3173e-37
6.0102e-07 6.4722e-38
6.0152e-07 7.1253e-38
6.0202e-07 9.4228e-38
6.0252e-07 1.3773e-37
6.0303e-07 2.316e-37
6.0353e-07 6.6871e-37
6.0403e-07 2.1731e-34
6.0454e-07 6.5037e-34
6.0504e-07 7.8082e-34
6.0555e-07 6.4763e-34
6.0605e-07 4.2957e-34
6.0656e-07 1.2016e-34
6.0706e-07 2.8645e-35
6.0757e-07 4.0898e-36
6.0808e-07 9.4724e-37
6.0858e-07 3.6884e-34
6.0909e-07 9.9368e-34
6.096e-07 1.0331e-33
6.1011e-07 7.4333e-34
6.1062e-07 4.8788e-34
6.1113e-07 2.6052e-34
6.1164e-07 1.404e-34
6.1215e-07 6.533e-35
6.1266e-07 1.1861e-34
6.1317e-07 1.9507e-34
6.1368e-07 1.2091e-34
6.1419e-07 1.2556e-34
6.147e-07 1.5139e-34
6.1522e-07 1.2943e-34
6.1573e-07 9.2904e-35
6.1624e-07 4.7892e-35
6.1676e-07 1.0475e-35
6.1727e-07 8.8119e-38
6.1779e-07 5.0976e-38
6.183e-07 4.683e-38
6.1882e-07 6.0494e-38
6.1933e-07 2.901e-36
6.1985e-07 4.2573e-35
6.2037e-07 1.5621e-34
6.2089e-07 1.8582e-34
6.214e-07 1.0012e-34
6.2192e-07 1.6744e-35
6.2244e-07 1.5191e-37
6.2296e-07 8.7169e-38
6.2348e-07 8.6571e-38
6.24e-07 9.9282e-38
6.2452e-07 1.2351e-37
6.2504e-07 1.6424e-37
6.2556e-07 2.3696e-37
6.2609e-07 3.9286e-37
6.2661e-07 9.2172e-37
6.2713e-07 2.9535e-34
6.2765e-07 1.0443e-33
6.2818e-07 1.4912e-33
6.287e-07 1.1438e-33
6.2923e-07 6.9887e-34
6.2975e-07 4.1587e-34
6.3028e-07 2.0152e-34
6.308e-07 1.1305e-34
6.3133e-07 2.2324e-34
6.3185e-07 3.0005e-34
6.3238e-07 2.39e-34
6.3291e-07 9.4047e-35
6.3344e-07 1.6169e-35
6.3397e-07 1.379e-37
6.3449e-07 8.9067e-38
6.3502e-07 6.8365e-38
6.3555e-07 5.3612e-38
6.3608e-07 3.9807e-38
6.3661e-07 2.9183e-38
6.3715e-07 2.3683e-38
6.3768e-07 2.1493e-38
6.3821e-07 2.1679e-38
6.3874e-07 2.4467e-38
6.3927e-07 2.9904e-38
6.3981e-07 4.1325e-38
6.4034e-07 6.5806e-38
6.4088e-07 5.359e-37
6.4141e-07 3.8358e-35
6.4195e-07 1.8703e-34
6.4248e-07 3.709e-34
6.4302e-07 3.2441e-34
6.4355e-07 1.2332e-34
6.4409e-07 1.774e-35
6.4463e-07 1.9648e-37
6.4516e-07 1.3418e-37
6.457e-07 1.3316e-37
6.4624e-07 1.5198e-37
6.4678e-07 1.9717e-37
6.4732e-07 2.9524e-37
6.4786e-07 4.718e-37
6.484e-07 7.9744e-37
6.4894e-07 2.0664e-36
6.4948e-07 7.6483e-34
6.5003e-07 2.0203e-33
6.5057e-07 2.1151e-33
6.5111e-07 1.5942e-33
6.5165e-07 1.2909e-33
6.522e-07 9.241e-34
6.5274e-07 6.7617e-34
6.5329e-07 3.0465e-34
6.5383e-07 8.3755e-35
6.5438e-07 1.7298e-35
6.5492e-07 1.3978e-33
6.5547e-07 6.9685e-33
6.5601e-07 1.1768e-32
6.5656e-07 1.091e-32
6.5711e-07 6.1539e-33
6.5766e-07 4.6573e-33
6.5821e-07 2.6559e-33
6.5876e-07 1.2751e-33
6.5931e-07 6.5007e-34
6.5986e-07 3.4308e-34
6.6041e-07 2.3302e-33
6.6096e-07 5.415e-33
6.6151e-07 4.4479e-33
6.6206e-07 2.8196e-33
6.6261e-07 2.2231e-33
6.6317e-07 1.1789e-33
6.6372e-07 6.3627e-34
6.6427e-07 4.7381e-34
6.6483e-07 3.8179e-34
6.6538e-07 2.6086e-34
6.6594e-07 1.8582e-34
6.6649e-07 9.0497e-35
6.6705e-07 3.7097e-35
6.676e-07 1.4865e-34
6.6816e-07 2.6079e-34
6.6872e-07 1.8915e-34
6.6928e-07 1.7379e-34
6.6983e-07 2.224e-34
6.7039e-07 2.3457e-34
6.7095e-07 1.4967e-34
6.7151e-07 3.48e-35
6.7207e-07 7.0856e-36
6.7263e-07 7.7793e-38
6.7319e-07 4.899e-38
6.7376e-07 3.5178e-38
6.7432e-07 2.7012e-38
6.7488e-07 2.1898e-38
6.7544e-07 1.8679e-38
6.7601e-07 1.6626e-38
6.7657e-07 1.5581e-38
6.7714e-07 1.4755e-38
6.777e-07 1.4694e-38
6.7827e-07 1.582e-38
6.7883e-07 1.8517e-38
6.794e-07 2.3678e-38
6.7996e-07 3.3962e-38
6.8053e-07 5.8353e-38
6.811e-07 9.3381e-36
6.8167e-07 3.5421e-35
6.8224e-07 1.5814e-34
6.8281e-07 2.9358e-34
6.8338e-07 1.9914e-34
6.8395e-07 8.8804e-35
6.8452e-07 1.4049e-35
6.8509e-07 7.0722e-38
6.8566e-07 3.7717e-38
6.8623e-07 2.6046e-38
6.868e-07 1.9429e-38
6.8738e-07 1.4591e-38
6.8795e-07 1.467e-38
6.8852e-07 1.1722e-38
6.891e-07 1.2509e-38
6.8967e-07 1.2809e-38
6.9025e-07 1.6744e-38
6.9082e-07 2.0386e-38
6.914e-07 2.2816e-38
6.9198e-07 2.8974e-38
6.9255e-07 4.4445e-38
6.9313e-07 7.4048e-38
6.9371e-07 5.5632e-37
6.9429e-07 4.0074e-35
6.9487e-07 1.7964e-34
6.9545e-07 4.3214e-34
6.9603e-07 4.7295e-34
6.9661e-07 2.4751e-34
6.9719e-07 3.8844e-35
6.9777e-07 1.3012e-36
6.9835e-07 9.1237e-38
6.9894e-07 5.9231e-38
6.9952e-07 4.5401e-38
7.001e-07 5.5725e-38
7.0069e-07 1.07e-37
7.0127e-07 1.7863e-37
7.0186e-07 2.5e-37
7.0244e-07 3.1706e-37
7.0303e-07 3.7899e-37
7.0361e-07 4.4639e-37
7.042e-07 5.4589e-37
7.0479e-07 6.6721e-37
7.0538e-07 8.954e-37
7.0596e-07 3.7529e-36
7.0655e-07 6e-35
7.0714e-07 2.9815e-34
7.0773e-07 5.3612e-34
7.0832e-07 4.3537e-34
7.0891e-07 1.8243e-34
7.0951e-07 2.2267e-33
7.101e-07 1.124e-32
7.1069e-07 1.8508e-32
7.1128e-07 1.4894e-32
7.1188e-07 1.1062e-32
7.1247e-07 8.1599e-33
7.1306e-07 4.4863e-33
7.1366e-07 2.3702e-33
7.1425e-07 1.0273e-33
7.1485e-07 1.6997e-33
7.1545e-07 2.5927e-32
7.1604e-07 5.4825e-32
7.1664e-07 5.2129e-32
7.1724e-07 3.4692e-32
7.1784e-07 2.8987e-32
7.1844e-07 1.6953e-32
7.1904e-07 1.0403e-32
7.1964e-07 6.843e-33
7.2024e-07 4.266e-33
7.2084e-07 2.9328e-33
7.2144e-07 1.8929e-33
7.2204e-07 4.8054e-33
7.2264e-07 1.0264e-32
7.2324e-07 1.2036e-32
7.2385e-07 8.8444e-33
7.2445e-07 6.7365e-33
7.2506e-07 4.5924e-33
7.2566e-07 2.6707e-33
7.2627e-07 1.0715e-33
7.2687e-07 8.8172e-34
7.2748e-07 1.5181e-33
7.2809e-07 1.7479e-33
7.2869e-07 1.5396e-33
7.293e-07 1.45e-33
7.2991e-07 1.0184e-33
7.3052e-07 5.0371e-34
7.3113e-07 1.521e-34
7.3174e-07 3.6279e-35
7.3235e-07 3.9532e-36
7.3296e-07 2.308e-34
7.3357e-07 4.9101e-34
7.3418e-07 4.0658e-34
7.348e-07 2.5837e-34
7.3541e-07 2.1995e-34
7.3602e-07 1.2706e-34
7.3664e-07 4.095e-35
7.3725e-07 7.5715e-36
7.3787e-07 2.1168e-37
7.3848e-07 3.2197e-35
7.391e-07 1.3068e-34
7.3971e-07 2.3082e-34
7.4033e-07 2.2345e-34
7.4095e-07 8.2945e-35
7.4157e-07 1.4575e-35
7.4218e-07 8.5945e-38
7.428e-07 4.3992e-38
7.4342e-07 2.9492e-38
7.4404e-07 2.0987e-38
7.4466e-07 1.5273e-38
7.4529e-07 1.0982e-38
7.4591e-07 8.1269e-39
7.4653e-07 6.6246e-39
7.4715e-07 6.1483e-39
7.4778e-07 7.0712e-39
7.484e-07 7.6006e-39
7.4902e-07 8.0645e-39
7.4965e-07 8.1488e-39
7.5027e-07 8.6735e-39
7.509e-07 8.9484e-39
7.5153e-07 9.7198e-39
7.5215e-07 1.1269e-38
7.5278e-07 1.3796e-38
7.5341e-07 1.7206e-38
7.5404e-07 2.2477e-38
7.5467e-07 3.1123e-38
7.553e-07 4.5643e-38
7.5593e-07 7.844e-38
7.5656e-07 1.5949e-35
7.5719e-07 4.2804e-35
7.5782e-07 1.5526e-34
7.5845e-07 3.6637e-34
7.5908e-07 3.1061e-34
7.5972e-07 2.5542e-34
7.6035e-07 5.5594e-35
7.6099e-07 1.1624e-37
7.6162e-07 5.1702e-38
7.6226e-07 3.8697e-38
7.6289e-07 2.9231e-38
7.6353e-07 2.243e-38
7.6417e-07 2.0819e-38
7.648e-07 1.8437e-38
7.6544e-07 1.8222e-38
7.6608e-07 1.8314e-38
7.6672e-07 1.8706e-38
7.6736e-07 1.9794e-38
7.68e-07 2.3944e-38
7.6864e-07 3.1258e-38
7.6928e-07 8.8211e-38
7.6992e-07 5.4798e-37
7.7056e-07 1.5335e-36
7.7121e-07 4.1426e-36
7.7185e-07 4.0366e-35
7.7249e-07 1.9133e-34
7.7314e-07 4.1083e-34
7.7378e-07 4.3281e-34
7.7443e-07 2.2974e-34
7.7508e-07 7.8124e-35
7.7572e-07 2.5472e-35
7.7637e-07 1.4586e-35
7.7702e-07 1.8598e-35
7.7766e-07 2.4085e-35
7.7831e-07 3.2022e-35
7.7896e-07 4.4593e-35
7.7961e-07 6.7575e-35
7.8026e-07 1.2032e-34
7.8091e-07 4.5312e-34
7.8157e-07 1.3011e-31
7.8222e-07 3.065e-31
7.8287e-07 2.8126e-31
7.8352e-07 1.9001e-31
7.8418e-07 1.7777e-31
7.8483e-07 1.4144e-31
7.8549e-07 8.8535e-32
7.8614e-07 3.7847e-32
7.868e-07 3.0506e-32
7.8745e-07 4.5256e-32
7.8811e-07 1.2439e-31
7.8877e-07 1.8892e-31
7.8943e-07 1.4818e-31
7.9008e-07 1.0535e-31
7.9074e-07 8.707e-32
7.914e-07 5.5934e-32
7.9206e-07 2.9777e-32
7.9272e-07 1.9095e-32
7.9339e-07 1.9738e-32
7.9405e-07 2.0524e-32
7.9471e-07 1.8838e-32
7.9537e-07 1.6907e-32
7.9604e-07 1.3056e-32
7.967e-07 9.5968e-33
7.9736e-07 6.1074e-33
7.9803e-07 3.8393e-33
7.987e-07 2.9564e-33
7.9936e-07 2.4602e-33
8.0003e-07 2.1215e-33
8.007e-07 1.2752e-33
8.0136e-07 1.696e-33
8.0203e-07 6.4911e-33
8.027e-07 1.0001e-32
8.0337e-07 7.4151e-33
8.0404e-07 4.7624e-33
8.0471e-07 4.4836e-33
8.0538e-07 2.9686e-33
8.0606e-07 1.6497e-33
8.0673e-07 1.0241e-33
8.074e-07 6.2496e-34
8.0807e-07 4.2807e-34
8.0875e-07 9.6544e-34
8.0942e-07 2.0363e-33
8.101e-07 2.2737e-33
8.1077e-07 1.8401e-33
8.1145e-07 1.8293e-33
8.1213e-07 1.8092e-33
8.1281e-07 1.2727e-33
8.1348e-07 5.5582e-34
8.1416e-07 2.3185e-34
8.1484e-07 2.3257e-35
8.1552e-07 7.1444e-37
8.162e-07 7.1221e-37
8.1688e-07 8.3422e-37
8.1756e-07 1.1449e-36
8.1825e-07 2.0324e-36
8.1893e-07 5.348e-34
8.1961e-07 3.2162e-33
8.203e-07 5.768e-33
8.2098e-07 4.5639e-33
8.2166e-07 3.3484e-33
8.2235e-07 3.5003e-33
8.2304e-07 2.1716e-33
8.2372e-07 1.2785e-33
8.2441e-07 4.9244e-34
8.251e-07 2.8579e-34
8.2579e-07 4.8792e-34
8.2647e-07 4.8467e-34
8.2716e-07 1.906e-34
8.2785e-07 1.1724e-33
8.2854e-07 9.194e-33
8.2924e-07 1.6688e-32
8.2993e-07 1.4246e-32
8.3062e-07 1.1218e-32
8.3131e-07 1.0207e-32
8.3201e-07 7.5173e-33
8.327e-07 4.0522e-33
8.334e-07 2.5371e-33
8.3409e-07 1.8094e-33
8.3479e-07 8.13e-34
8.3548e-07 1.2664e-34
8.3618e-07 2.3554e-36
8.3688e-07 4.204e-36
8.3758e-07 1.6155e-33
8.3827e-07 4.709e-33
8.3897e-07 5.1566e-33
8.3967e-07 3.5813e-33
8.4037e-07 3.2416e-33
8.4107e-07 2.8855e-33
8.4178e-07 1.8489e-33
8.4248e-07 9.1005e-34
8.4318e-07 2.284e-34
8.4388e-07 9.663e-35
8.4459e-07 1.8281e-36
8.4529e-07 4.3744e-37
8.46e-07 3.2375e-37
8.467e-07 2.6291e-37
8.4741e-07 2.3006e-37
8.4812e-07 2.1989e-37
8.4883e-07 2.4065e-37
8.4953e-07 3.2479e-37
8.5024e-07 1.6104e-35
8.5095e-07 2.6357e-34
8.5166e-07 5.9293e-34
8.5237e-07 9.9342e-34
8.5308e-07 1.0801e-33
8.5379e-07 6.9952e-34
8.5451e-07 2.395e-34
8.5522e-07 7.8423e-35
8.5593e-07 2.1233e-35
8.5665e-07 2.6989e-35
8.5736e-07 3.2425e-35
8.5808e-07 3.7563e-35
8.5879e-07 4.3172e-35
8.5951e-07 4.9553e-35
8.6023e-07 5.2106e-35
8.6094e-07 5.069e-35
8.6166e-07 5.0423e-35
8.6238e-07 8.4183e-35
8.631e-07 1.8704e-34
8.6382e-07 2.3438e-34
8.6454e-07 2.2333e-34
8.6526e-07 2.5766e-34
8.6598e-07 3.0263e-34
8.6671e-07 4.0117e-34
8.6743e-07 9.409e-34
8.6815e-07 2.6921e-31
8.6888e-07 8.5663e-31
8.696e-07 1.0366e-30
8.7033e-07 7.5398e-31
8.7105e-07 5.9812e-31
8.7178e-07 4.8894e-31
8.7251e-07 3.2771e-31
8.7324e-07 2.4999e-31
8.7396e-07 2.4551e-31
8.7469e-07 1.6481e-31
8.7542e-07 1.0395e-31
8.7615e-07 9.1487e-32
8.7688e-07 6.38e-32
8.7762e-07 4.7535e-32
8.7835e-07 3.4362e-32
8.7908e-07 2.4487e-32
8.7981e-07 1.5749e-32
8.8055e-07 1.0698e-32
8.8128e-07 7.6103e-33
8.8202e-07 4.5371e-33
8.8275e-07 2.579e-33
8.8349e-07 1.3785e-33
8.8423e-07 1.0053e-33
8.8496e-07 1.3652e-33
8.857e-07 1.9099e-33
8.8644e-07 1.5672e-33
8.8718e-07 8.9721e-34
8.8792e-07 4.0008e-34
8.8866e-07 2.1237e-34
8.894e-07 7.7539e-35
8.9015e-07 2.2288e-35
8.9089e-07 1.0037e-35
8.9163e-07 2.0537e-35
8.9237e-07 8.4338e-33
8.9312e-07 2.8644e-32
8.9386e-07 3.5874e-32
8.9461e-07 2.562e-32
8.9536e-07 1.9217e-32
8.961e-07 1.7866e-32
8.9685e-07 1.3562e-32
8.976e-07 1.0278e-32
8.9835e-07 8.4083e-33
8.991e-07 5.5799e-33
8.9985e-07 3.4629e-33
9.006e-07 3.2255e-33
9.0135e-07 2.5098e-33
9.021e-07 1.3829e-33
9.0285e-07 5.0082e-34
9.0361e-07 1.3763e-34
9.0436e-07 1.1441e-35
9.0512e-07 1.1235e-35
9.0587e-07 1.6344e-35
9.0663e-07 7.1895e-35
9.0738e-07 3.2613e-33
9.0814e-07 3.1303e-32
9.089e-07 7.4865e-32
9.0966e-07 8.3689e-32
9.1041e-07 5.1033e-32
9.1117e-07 4.3446e-32
9.1193e-07 4.4239e-32
9.1269e-07 3.1102e-32
9.1346e-07 1.7358e-32
9.1422e-07 6.491e-33
9.1498e-07 2.675e-33
9.1574e-07 1.3653e-33
9.1651e-07 1.1457e-33
9.1727e-07 1.3777e-33
9.1804e-07 9.19e-34
9.188e-07 1.1798e-33
9.1957e-07 6.8641e-33
9.2034e-07 1.8001e-31
9.211e-07 4.8248e-31
9.2187e-07 5.0903e-31
9.2264e-07 3.0796e-31
9.2341e-07 3.4684e-31
9.2418e-07 3.2401e-31
9.2495e-07 2.2368e-31
9.2572e-07 1.3128e-31
9.265e-07 6.7453e-32
9.2727e-07 3.4929e-32
9.2804e-07 1.9811e-32
9.2882e-07 9.5717e-33
9.2959e-07 4.8021e-33
9.3037e-07 1.2994e-31
9.3114e-07 3.9014e-31
9.3192e-07 4.6843e-31
9.327e-07 3.1307e-31
9.3348e-07 2.8995e-31
9.3426e-07 3.1678e-31
9.3503e-07 2.3384e-31
9.3581e-07 1.657e-31
9.366e-07 1.1053e-31
9.3738e-07 6.3425e-32
9.3816e-07 3.0677e-32
9.3894e-07 2.3089e-32
9.3972e-07 1.9334e-32
9.4051e-07 1.6881e-32
9.4129e-07 1.2356e-32
9.4208e-07 7.5469e-33
9.4286e-07 5.9236e-33
9.4365e-07 1.0753e-32
9.4444e-07 3.6373e-32
9.4523e-07 5.287e-32
9.4601e-07 3.4343e-32
9.468e-07 2.3556e-32
9.4759e-07 2.2377e-32
9.4838e-07 1.789e-32
9.4918e-07 1.3543e-32
9.4997e-07 8.7235e-33
9.5076e-07 4.7275e-33
9.5155e-07 6.1888e-33
9.5235e-07 7.1245e-33
9.5314e-07 4.7666e-33
9.5394e-07 3.9022e-33
9.5473e-07 4.1119e-33
9.5553e-07 3.4681e-33
9.5633e-07 1.8897e-33
9.5712e-07 5.803e-34
9.5792e-07 7.9299e-35
9.5872e-07 3.5235e-36
9.5952e-07 1.9735e-36
9.6032e-07 2.0637e-36
9.6112e-07 1.0915e-34
9.6192e-07 4.8272e-34
9.6273e-07 1.2994e-33
9.6353e-07 3.1983e-33
9.6433e-07 6.026e-33
9.6514e-07 5.8087e-33
9.6594e-07 3.7461e-33
9.6675e-07 4.1174e-33
9.6756e-07 3.9658e-33
9.6836e-07 2.7445e-33
9.6917e-07 1.562e-33
9.6998e-07 8.1727e-34
9.7079e-07 1.1523e-33
9.716e-07 1.6008e-33
9.7241e-07 2.4945e-33
9.7322e-07 2.217e-33
9.7403e-07 9.0009e-34
9.7484e-07 1.8291e-34
9.7566e-07 5.5594e-35
9.7647e-07 9.8541e-36
9.7729e-07 1.0577e-33
9.781e-07 9.089e-33
9.7892e-07 2.6136e-32
9.7973e-07 3.6029e-32
9.8055e-07 2.8083e-32
9.8137e-07 2.198e-32
9.8219e-07 2.3251e-32
9.8301e-07 1.9925e-32
9.8383e-07 1.2191e-32
9.8465e-07 6.0643e-33
9.8547e-07 2.3499e-33
9.8629e-07 7.2305e-34
9.8711e-07 4.9765e-34
9.8794e-07 1.3637e-33
9.8876e-07 1.7921e-33
9.8959e-07 1.1446e-33
9.9041e-07 8.7054e-34
9.9124e-07 3.3362e-33
9.9207e-07 1.2296e-32
9.9289e-07 2.2712e-32
9.9372e-07 2.1787e-32
9.9455e-07 1.5299e-32
9.9538e-07 1.5727e-32
9.9621e-07 1.5886e-32
9.9704e-07 1.2055e-32
9.9787e-07 7.6062e-33
9.9871e-07 3.788e-33
9.9954e-07 2.309e-33
1.0004e-06 1.8334e-33
1.0012e-06 1.2999e-33
1.002e-06 6.4005e-34
1.0029e-06 1.2522e-34
1.0037e-06 5.6255e-36
1.0046e-06 2.4989e-36
1.0054e-06 2.5175e-36
1.0062e-06 2.7646e-36
1.0071e-06 3.5396e-36
1.0079e-06 1.5744e-34
1.0087e-06 8.4936e-34
1.0096e-06 2.1914e-33
1.0104e-06 3.248e-33
1.0113e-06 6.0309e-33
1.0121e-06 1.4094e-32
1.013e-06 2.268e-32
1.0138e-06 2.413e-32
1.0147e-06 1.9679e-32
1.0155e-06 1.0775e-32
1.0163e-06 4.6262e-33
1.0172e-06 2.854e-33
1.018e-06 2.5731e-33
1.0189e-06 2.3892e-33
1.0197e-06 1.5857e-33
1.0206e-06 7.552e-34
1.0214e-06 4.8708e-34
1.0223e-06 4.391e-34
1.0232e-06 3.4775e-34
1.024e-06 2.646e-34
1.0249e-06 2.2868e-34
1.0257e-06 2.6003e-34
1.0266e-06 3.0436e-34
1.0274e-06 3.8714e-34
1.0283e-06 8.3663e-34
1.0291e-06 1.5646e-33
1.03e-06 1.9968e-33
