2.8e-07 0
2.8019e-07 0
2.8037e-07 0
2.8056e-07 0
2.8075e-07 0
2.8094e-07 0
2.8112e-07 0
2.8131e-07 0
2.815e-07 0
2.8169e-07 0
2.8187e-07 0
2.8206e-07 0
2.8225e-07 0
2.8244e-07 0
2.8263e-07 0
2.8282e-07 0
2.8301e-07 0
2.8319e-07 0
2.8338e-07 0
2.8357e-07 0
2.8376e-07 0
2.8395e-07 0
2.8414e-07 0
2.8433e-07 0
2.8452e-07 0
2.8471e-07 0
2.849e-07 0
2.8509e-07 0
2.8528e-07 0
2.8547e-07 0
2.8566e-07 0
2.8585e-07 0
2.8604e-07 0
2.8623e-07 0
2.8642e-07 0
2.8662e-07 0
2.8681e-07 0
2.87e-07 0
2.8719e-07 0
2.8738e-07 0
2.8757e-07 0
2.8777e-07 0
2.8796e-07 0
2.8815e-07 0
2.8834e-07 0
2.8853e-07 0
2.8873e-07 0
2.8892e-07 0
2.8911e-07 0
2.8931e-07 0
2.895e-07 0
2.8969e-07 0
2.8989e-07 0
2.9008e-07 0
2.9027e-07 0
2.9047e-07 0
2.9066e-07 0
2.9085e-07 0
2.9105e-07 0
2.9124e-07 0
2.9144e-07 0
2.9163e-07 0
2.9183e-07 0
2.9202e-07 0
2.9222e-07 0
2.9241e-07 0
2.9261e-07 0
2.928e-07 0
2.93e-07 0
2.9319e-07 0
2.9339e-07 0
2.9358e-07 0
2.9378e-07 0
2.9398e-07 0
2.9417e-07 0
2.9437e-07 0
2.9456e-07 0
2.9476e-07 0
2.9496e-07 0
2.9515e-07 0
2.9535e-07 0
2.9555e-07 0
2.9575e-07 0
2.9594e-07 0
2.9614e-07 0
2.9634e-07 0
2.9654e-07 0
2.9673e-07 0
2.9693e-07 0
2.9713e-07 0
2.9733e-07 0
2.9753e-07 0
2.9773e-07 0
2.9792e-07 0
2.9812e-07 0
2.9832e-07 0
2.9852e-07 0
2.9872e-07 0
2.9892e-07 0
2.9912e-07 0
2.9932e-07 0
2.9952e-07 0
2.9972e-07 0
2.9992e-07 0
3.0012e-07 0
3.0032e-07 0
3.0052e-07 0
3.0072e-07 0
3.0092e-07 0
3.0112e-07 0
3.0132e-07 0
3.0152e-07 0
3.0173e-07 0
3.0193e-07 0
3.0213e-07 0
3.0233e-07 0
3.0253e-07 0
3.0273e-07 0
3.0294e-07 0
3.0314e-07 0
3.0334e-07 0
3.0354e-07 0
3.0375e-07 0
3.0395e-07 0
3.0415e-07 0
3.0435e-07 0
3.0456e-07 0
3.0476e-07 0
3.0496e-07 0
3.0517e-07 0
3.0537e-07 0
3.0557e-07 0
3.0578e-07 0
3.0598e-07 0
3.0619e-07 0
3.0639e-07 0
3.066e-07 0
3.068e-07 0
3.0701e-07 0
3.0721e-07 0
3.0742e-07 0
3.0762e-07 0
3.0783e-07 0
3.0803e-07 0
3.0824e-07 0
3.0844e-07 0
3.0865e-07 0
3.0885e-07 0
3.0906e-07 0
3.0927e-07 0
3.0947e-07 0
3.0968e-07 0
3.0989e-07 0
3.1009e-07 0
3.103e-07 0
3.1051e-07 0
3.1071e-07 0
3.1092e-07 0
3.1113e-07 0
3.1134e-07 0
3.1155e-07 0
3.1175e-07 0
3.1196e-07 0
3.1217e-07 0
3.1238e-07 0
3.1259e-07 0
3.1279e-07 0
3.13e-07 0
3.1321e-07 0
3.1342e-07 0
3.1363e-07 0
3.1384e-07 0
3.1405e-07 0
3.1426e-07 0
3.1447e-07 0
3.1468e-07 0
3.1489e-07 0
3.151e-07 0
3.1531e-07 0
3.1552e-07 0
3.1573e-07 0
3.1594e-07 0
3.1615e-07 0
3.1636e-07 0
3.1657e-07 0
3.1679e-07 0
3.17e-07 0
3.1721e-07 0
3.1742e-07 0
3.1763e-07 0
3.1784e-07 0
3.1806e-07 0
3.1827e-07 0
3.1848e-07 0
3.1869e-07 0
3.1891e-07 0
3.1912e-07 0
3.1933e-07 0
3.1955e-07 0
3.1976e-07 0
3.1997e-07 0
3.2019e-07 0
3.204e-07 0
3.2061e-07 0
3.2083e-07 0
3.2104e-07 0
3.2126e-07 0
3.2147e-07 0
3.2168e-07 0
3.219e-07 0
3.2211e-07 0
3.2233e-07 0
3.2254e-07 0
3.2276e-07 0
3.2297e-07 0
3.2319e-07 0
3.2341e-07 0
3.2362e-07 0
3.2384e-07 0
3.2405e-07 0
3.2427e-07 0
3.2449e-07 0
3.247e-07 0
3.2492e-07 0
3.2514e-07 0
3.2535e-07 0
3.2557e-07 0
3.2579e-07 0
3.2601e-07 0
3.2622e-07 0
3.2644e-07 0
3.2666e-07 0
3.2688e-07 0
3.271e-07 0
3.2731e-07 0
3.2753e-07 0
3.2775e-07 0
3.2797e-07 0
3.2819e-07 0
3.2841e-07 0
3.2863e-07 0
3.2885e-07 0
3.2907e-07 0
3.2928e-07 0
3.295e-07 0
3.2972e-07 0
3.2994e-07 0
3.3016e-07 0
3.3039e-07 0
3.3061e-07 0
3.3083e-07 0
3.3105e-07 0
3.3127e-07 0
3.3149e-07 0
3.3171e-07 0
3.3193e-07 0
3.3215e-07 0
3.3238e-07 0
3.326e-07 0
3.3282e-07 0
3.3304e-07 0
3.3326e-07 0
3.3349e-07 0
3.3371e-07 0
3.3393e-07 0
3.3415e-07 0
3.3438e-07 0
3.346e-07 0
3.3482e-07 0
3.3505e-07 0
3.3527e-07 0
3.3549e-07 0
3.3572e-07 0
3.3594e-07 0
3.3617e-07 0
3.3639e-07 0
3.3662e-07 0
3.3684e-07 0
3.3706e-07 0
3.3729e-07 0
3.3752e-07 0
3.3774e-07 0
3.3797e-07 0
3.3819e-07 0
3.3842e-07 0
3.3864e-07 0
3.3887e-07 0
3.391e-07 0
3.3932e-07 0
3.3955e-07 0
3.3977e-07 0
3.4e-07 0
3.4023e-07 0
3.4046e-07 0
3.4068e-07 0
3.4091e-07 0
3.4114e-07 0
3.4137e-07 0
3.4159e-07 0
3.4182e-07 0
3.4205e-07 0
3.4228e-07 0
3.4251e-07 0
3.4273e-07 0
3.4296e-07 0
3.4319e-07 0
3.4342e-07 0
3.4365e-07 0
3.4388e-07 0
3.4411e-07 0
3.4434e-07 0
3.4457e-07 0
3.448e-07 0
3.4503e-07 0
3.4526e-07 0
3.4549e-07 0
3.4572e-07 0
3.4595e-07 0
3.4618e-07 0
3.4641e-07 0
3.4664e-07 0
3.4688e-07 0
3.4711e-07 0
3.4734e-07 0
3.4757e-07 0
3.478e-07 0
3.4803e-07 0
3.4827e-07 0
3.485e-07 0
3.4873e-07 0
3.4896e-07 0
3.492e-07 0
3.4943e-07 0
3.4966e-07 0
3.499e-07 0
3.5013e-07 0
3.5036e-07 0
3.506e-07 0
3.5083e-07 0
3.5107e-07 0
3.513e-07 0
3.5154e-07 0
3.5177e-07 0
3.52e-07 0
3.5224e-07 0
3.5247e-07 0
3.5271e-07 0
3.5295e-07 0
3.5318e-07 0
3.5342e-07 0
3.5365e-07 0
3.5389e-07 0
3.5412e-07 0
3.5436e-07 0
3.546e-07 0
3.5483e-07 0
3.5507e-07 0
3.5531e-07 0
3.5555e-07 0
3.5578e-07 0
3.5602e-07 0
3.5626e-07 0
3.565e-07 0
3.5673e-07 0
3.5697e-07 0
3.5721e-07 0
3.5745e-07 0
3.5769e-07 0
3.5793e-07 0
3.5816e-07 0
3.584e-07 0
3.5864e-07 0
3.5888e-07 0
3.5912e-07 0
3.5936e-07 0
3.596e-07 0
3.5984e-07 0
3.6008e-07 0
3.6032e-07 0
3.6056e-07 0
3.608e-07 0
3.6104e-07 0
3.6128e-07 0
3.6153e-07 0
3.6177e-07 0
3.6201e-07 0
3.6225e-07 0
3.6249e-07 0
3.6273e-07 0
3.6298e-07 0
3.6322e-07 0
3.6346e-07 0
3.637e-07 0
3.6395e-07 0
3.6419e-07 0
3.6443e-07 0
3.6468e-07 0
3.6492e-07 0
3.6516e-07 0
3.6541e-07 0
3.6565e-07 0
3.6589e-07 0
3.6614e-07 0
3.6638e-07 0
3.6663e-07 0
3.6687e-07 0
3.6712e-07 0
3.6736e-07 0
3.6761e-07 0
3.6785e-07 0
3.681e-07 0
3.6834e-07 0
3.6859e-07 0
3.6884e-07 0
3.6908e-07 0
3.6933e-07 0
3.6957e-07 0
3.6982e-07 0
3.7007e-07 0
3.7031e-07 0
3.7056e-07 0
3.7081e-07 0
3.7106e-07 0
3.713e-07 0
3.7155e-07 0
3.718e-07 0
3.7205e-07 0
3.723e-07 0
3.7255e-07 0
3.7279e-07 0
3.7304e-07 0
3.7329e-07 0
3.7354e-07 0
3.7379e-07 0
3.7404e-07 0
3.7429e-07 0
3.7454e-07 0
3.7479e-07 0
3.7504e-07 0
3.7529e-07 0
3.7554e-07 0
3.7579e-07 0
3.7604e-07 0
3.7629e-07 0
3.7654e-07 0
3.7679e-07 0
3.7705e-07 0
3.773e-07 0
3.7755e-07 0
3.778e-07 0
3.7805e-07 0
3.7831e-07 0
3.7856e-07 0
3.7881e-07 0
3.7906e-07 0
3.7932e-07 0
3.7957e-07 0
3.7982e-07 0
3.8008e-07 0
3.8033e-07 0
3.8058e-07 0
3.8084e-07 0
3.8109e-07 0
3.8135e-07 0
3.816e-07 0
3.8186e-07 0
3.8211e-07 0
3.8237e-07 0
3.8262e-07 0
3.8288e-07 0
3.8313e-07 0
3.8339e-07 0
3.8364e-07 0
3.839e-07 0
3.8416e-07 0
3.8441e-07 0
3.8467e-07 0
3.8493e-07 0
3.8518e-07 0
3.8544e-07 0
3.857e-07 0
3.8595e-07 0
3.8621e-07 0
3.8647e-07 0
3.8673e-07 0
3.8699e-07 0
3.8724e-07 0
3.875e-07 0
3.8776e-07 0
3.8802e-07 0
3.8828e-07 0
3.8854e-07 0
3.888e-07 0
3.8906e-07 0
3.8932e-07 0
3.8958e-07 0
3.8984e-07 0
3.901e-07 0
3.9036e-07 0
3.9062e-07 0
3.9088e-07 0
3.9114e-07 0
3.914e-07 0
3.9166e-07 0
3.9192e-07 0
3.9218e-07 0
3.9245e-07 0
3.9271e-07 0
3.9297e-07 0
3.9323e-07 0
3.935e-07 0
3.9376e-07 0
3.9402e-07 0
3.9428e-07 0
3.9455e-07 0
3.9481e-07 0
3.9507e-07 0
3.9534e-07 0
3.956e-07 0
3.9587e-07 0
3.9613e-07 0
3.9639e-07 0
3.9666e-07 0
3.9692e-07 0
3.9719e-07 0
3.9745e-07 0
3.9772e-07 0
3.9798e-07 0
3.9825e-07 0
3.9852e-07 0
3.9878e-07 0
3.9905e-07 0
3.9931e-07 0
3.9958e-07 0
3.9985e-07 0
4.0011e-07 0
4.0038e-07 0
4.0065e-07 0
4.0092e-07 0
4.0118e-07 0
4.0145e-07 0
4.0172e-07 0
4.0199e-07 0
4.0226e-07 0
4.0252e-07 0
4.0279e-07 0
4.0306e-07 0
4.0333e-07 0
4.036e-07 0
4.0387e-07 0
4.0414e-07 0
4.0441e-07 0
4.0468e-07 0
4.0495e-07 0
4.0522e-07 0
4.0549e-07 0
4.0576e-07 0
4.0603e-07 0
4.063e-07 0
4.0657e-07 0
4.0684e-07 0
4.0712e-07 0
4.0739e-07 0
4.0766e-07 0
4.0793e-07 0
4.082e-07 0
4.0848e-07 0
4.0875e-07 0
4.0902e-07 0
4.0929e-07 0
4.0957e-07 0
4.0984e-07 0
4.1011e-07 0
4.1039e-07 0
4.1066e-07 0
4.1094e-07 0
4.1121e-07 0
4.1149e-07 0
4.1176e-07 0
4.1203e-07 0
4.1231e-07 0
4.1258e-07 0
4.1286e-07 0
4.1314e-07 0
4.1341e-07 0
4.1369e-07 0
4.1396e-07 0
4.1424e-07 0
4.1452e-07 0
4.1479e-07 0
4.1507e-07 0
4.1535e-07 0
4.1562e-07 0
4.159e-07 0
4.1618e-07 0
4.1646e-07 0
4.1673e-07 0
4.1701e-07 0
4.1729e-07 0
4.1757e-07 0
4.1785e-07 0
4.1813e-07 0
4.1841e-07 0
4.1869e-07 0
4.1897e-07 0
4.1924e-07 0
4.1952e-07 0
4.198e-07 0
4.2008e-07 0
4.2037e-07 0
4.2065e-07 0
4.2093e-07 0
4.2121e-07 0
4.2149e-07 0
4.2177e-07 0
4.2205e-07 0
4.2233e-07 0
4.2262e-07 0
4.229e-07 0
4.2318e-07 0
4.2346e-07 0
4.2374e-07 0
4.2403e-07 0
4.2431e-07 0
4.2459e-07 0
4.2488e-07 0
4.2516e-07 0
4.2544e-07 0
4.2573e-07 0
4.2601e-07 0
4.263e-07 0
4.2658e-07 0
4.2687e-07 0
4.2715e-07 0
4.2744e-07 0
4.2772e-07 0
4.2801e-07 0
4.2829e-07 0
4.2858e-07 0
4.2886e-07 0
4.2915e-07 0
4.2944e-07 0
4.2972e-07 0
4.3001e-07 0
4.303e-07 0
4.3058e-07 0
4.3087e-07 0
4.3116e-07 0
4.3145e-07 0
4.3174e-07 0
4.3202e-07 0
4.3231e-07 0
4.326e-07 0
4.3289e-07 0
4.3318e-07 0
4.3347e-07 0
4.3376e-07 0
4.3405e-07 0
4.3434e-07 0
4.3463e-07 0
4.3492e-07 0
4.3521e-07 0
4.355e-07 0
4.3579e-07 0
4.3608e-07 0
4.3637e-07 0
4.3666e-07 0
4.3695e-07 0
4.3724e-07 0
4.3754e-07 0
4.3783e-07 0
4.3812e-07 0
4.3841e-07 0
4.387e-07 0
4.39e-07 0
4.3929e-07 0
4.3958e-07 0
4.3988e-07 0
4.4017e-07 0
4.4046e-07 0
4.4076e-07 0
4.4105e-07 0
4.4135e-07 0
4.4164e-07 0
4.4194e-07 0
4.4223e-07 0
4.4253e-07 0
4.4282e-07 0
4.4312e-07 0
4.4341e-07 0
4.4371e-07 0
4.44e-07 0
4.443e-07 0
4.446e-07 0
4.4489e-07 0
4.4519e-07 0
4.4549e-07 0
4.4579e-07 0
4.4608e-07 0
4.4638e-07 0
4.4668e-07 0
4.4698e-07 0
4.4728e-07 0
4.4757e-07 0
4.4787e-07 0
4.4817e-07 0
4.4847e-07 0
4.4877e-07 0
4.4907e-07 0
4.4937e-07 0
4.4967e-07 0
4.4997e-07 0
4.5027e-07 0
4.5057e-07 0
4.5087e-07 0
4.5117e-07 0
4.5147e-07 0
4.5177e-07 0
4.5208e-07 0
4.5238e-07 0
4.5268e-07 0
4.5298e-07 0
4.5328e-07 0
4.5359e-07 0
4.5389e-07 0
4.5419e-07 0
4.545e-07 0
4.548e-07 0
4.551e-07 0
4.5541e-07 0
4.5571e-07 0
4.5601e-07 0
4.5632e-07 0
4.5662e-07 0
4.5693e-07 0
4.5723e-07 0
4.5754e-07 0
4.5784e-07 0
4.5815e-07 0
4.5846e-07 0
4.5876e-07 0
4.5907e-07 0
4.5937e-07 0
4.5968e-07 0
4.5999e-07 0
4.6029e-07 0
4.606e-07 0
4.6091e-07 0
4.6122e-07 0
4.6152e-07 0
4.6183e-07 0
4.6214e-07 0
4.6245e-07 0
4.6276e-07 0
4.6307e-07 0
4.6338e-07 0
4.6368e-07 0
4.6399e-07 0
4.643e-07 0
4.6461e-07 0
4.6492e-07 0
4.6523e-07 0
4.6554e-07 0
4.6586e-07 0
4.6617e-07 0
4.6648e-07 0
4.6679e-07 0
4.671e-07 0
4.6741e-07 0
4.6772e-07 0
4.6804e-07 0
4.6835e-07 0
4.6866e-07 0
4.6897e-07 0
4.6929e-07 0
4.696e-07 0
4.6991e-07 0
4.7023e-07 0
4.7054e-07 0
4.7086e-07 0
4.7117e-07 0
4.7148e-07 0
4.718e-07 0
4.7211e-07 0
4.7243e-07 0
4.7274e-07 0
4.7306e-07 0
4.7338e-07 0
4.7369e-07 0
4.7401e-07 0
4.7432e-07 0
4.7464e-07 0
4.7496e-07 0
4.7527e-07 0
4.7559e-07 0
4.7591e-07 0
4.7623e-07 0
4.7654e-07 0
4.7686e-07 0
4.7718e-07 0
4.775e-07 0
4.7782e-07 0
4.7814e-07 0
4.7846e-07 0
4.7878e-07 0
4.7909e-07 0
4.7941e-07 0
4.7973e-07 0
4.8005e-07 0
4.8038e-07 0
4.807e-07 0
4.8102e-07 0
4.8134e-07 0
4.8166e-07 0
4.8198e-07 0
4.823e-07 0
4.8262e-07 0
4.8295e-07 0
4.8327e-07 0
4.8359e-07 0
4.8391e-07 0
4.8424e-07 0
4.8456e-07 0
4.8488e-07 0
4.8521e-07 0
4.8553e-07 0
4.8585e-07 0
4.8618e-07 0
4.865e-07 0
4.8683e-07 0
4.8715e-07 0
4.8748e-07 0
4.878e-07 0
4.8813e-07 0
4.8846e-07 0
4.8878e-07 0
4.8911e-07 0
4.8943e-07 0
4.8976e-07 0
4.9009e-07 0
4.9041e-07 0
4.9074e-07 0
4.9107e-07 0
4.914e-07 0
4.9173e-07 0
4.9205e-07 0
4.9238e-07 0
4.9271e-07 0
4.9304e-07 0
4.9337e-07 0
4.937e-07 0
4.9403e-07 0
4.9436e-07 0
4.9469e-07 0
4.9502e-07 0
4.9535e-07 0
4.9568e-07 0
4.9601e-07 0
4.9634e-07 7.839e-42
4.9667e-07 2.7767e-41
4.97e-07 1.2044e-40
4.9733e-07 7.2912e-40
4.9767e-07 2.1343e-39
4.98e-07 3.8546e-39
4.9833e-07 5.0639e-39
4.9866e-07 6.2767e-39
4.99e-07 7.588e-39
4.9933e-07 9.028e-39
4.9966e-07 1.1453e-38
5e-07 1.4576e-38
5.0033e-07 1.9086e-38
5.0066e-07 2.6866e-38
5.01e-07 4.1363e-38
5.0133e-07 1.0378e-37
5.0167e-07 7.2338e-36
5.02e-07 8.1833e-35
5.0234e-07 2.0411e-34
5.0267e-07 3.4293e-34
5.0301e-07 2.2377e-34
5.0334e-07 6.8891e-35
5.0368e-07 1.3915e-35
5.0402e-07 1.8947e-36
5.0435e-07 5.5335e-38
5.0469e-07 3.027e-38
5.0503e-07 2.0747e-38
5.0536e-07 1.5272e-38
5.057e-07 1.1997e-38
5.0604e-07 9.5699e-39
5.0637e-07 7.8809e-39
5.0671e-07 6.4395e-39
5.0705e-07 5.5228e-39
5.0739e-07 4.4863e-39
5.0773e-07 2.5657e-39
5.0807e-07 9.4425e-40
5.0841e-07 3.5767e-40
5.0875e-07 8.3999e-41
5.0909e-07 3.5765e-42
5.0942e-07 1.4894e-41
5.0976e-07 0
5.1011e-07 -2.9396e-42
5.1045e-07 1.0265e-40
5.1079e-07 2.379e-40
5.1113e-07 9.4739e-40
5.1147e-07 2.455e-39
5.1181e-07 4.1203e-39
5.1215e-07 5.497e-39
5.1249e-07 6.7517e-39
5.1284e-07 7.9455e-39
5.1318e-07 9.8925e-39
5.1352e-07 1.2041e-38
5.1386e-07 1.5735e-38
5.1421e-07 2.0924e-38
5.1455e-07 2.8853e-38
5.1489e-07 4.3312e-38
5.1524e-07 1.3926e-37
5.1558e-07 7.905e-36
5.1592e-07 4.3735e-35
5.1627e-07 2.5888e-34
5.1661e-07 3.5548e-34
5.1696e-07 2.6744e-34
5.173e-07 1.6462e-34
5.1765e-07 2.1285e-35
5.1799e-07 1.4419e-36
5.1834e-07 1.7648e-37
5.1869e-07 4.5024e-38
5.1903e-07 3.2849e-38
5.1938e-07 2.6853e-38
5.1972e-07 2.3968e-38
5.2007e-07 2.3005e-38
5.2042e-07 2.3944e-38
5.2077e-07 2.7734e-38
5.2111e-07 3.5568e-38
5.2146e-07 1.2245e-37
5.2181e-07 1.16e-36
5.2216e-07 3.2567e-35
5.2251e-07 8.35e-35
5.2285e-07 2.1723e-34
5.232e-07 2.3529e-34
5.2355e-07 9.6873e-35
5.239e-07 4.4597e-35
5.2425e-07 4.7489e-36
5.246e-07 5.8548e-38
5.2495e-07 2.8642e-38
5.253e-07 1.9642e-38
5.2565e-07 1.4502e-38
5.26e-07 1.1168e-38
5.2635e-07 8.7875e-39
5.2671e-07 6.999e-39
5.2706e-07 5.7815e-39
5.2741e-07 5.3175e-39
5.2776e-07 4.9641e-39
5.2811e-07 5.1946e-39
5.2847e-07 5.2564e-39
5.2882e-07 4.7666e-39
5.2917e-07 4.9909e-39
5.2953e-07 5.7187e-39
5.2988e-07 6.6466e-39
5.3023e-07 8.2659e-39
5.3059e-07 1.0393e-38
5.3094e-07 1.3566e-38
5.3129e-07 1.8414e-38
5.3165e-07 2.6898e-38
5.32e-07 4.5843e-38
5.3236e-07 5.7256e-37
5.3271e-07 1.8085e-35
5.3307e-07 8.0401e-35
5.3343e-07 2.0095e-34
5.3378e-07 2.5335e-34
5.3414e-07 1.2526e-34
5.3449e-07 3.045e-35
5.3485e-07 6.7984e-36
5.3521e-07 2.0598e-37
5.3557e-07 3.1771e-38
5.3592e-07 2.1985e-38
5.3628e-07 1.7843e-38
5.3664e-07 1.5865e-38
5.37e-07 1.499e-38
5.3736e-07 1.4546e-38
5.3771e-07 1.5033e-38
5.3807e-07 1.6177e-38
5.3843e-07 1.7946e-38
5.3879e-07 2.0087e-38
5.3915e-07 2.3792e-38
5.3951e-07 2.9035e-38
5.3987e-07 3.8769e-38
5.4023e-07 5.8412e-38
5.4059e-07 2.4543e-37
5.4095e-07 1.5304e-35
5.4131e-07 9.1506e-35
5.4167e-07 2.2428e-34
5.4204e-07 3.4928e-34
5.424e-07 2.885e-34
5.4276e-07 1.6305e-34
5.4312e-07 1.0559e-34
5.4349e-07 8.4405e-35
5.4385e-07 6.0406e-35
5.4421e-07 5.2525e-35
5.4457e-07 1.2017e-35
5.4494e-07 1.2118e-36
5.453e-07 4.9445e-37
5.4567e-07 1.5805e-35
5.4603e-07 1.0197e-34
5.4639e-07 1.7757e-34
5.4676e-07 1.3946e-34
5.4712e-07 8.9328e-35
5.4749e-07 6.3874e-35
5.4785e-07 2.2477e-35
5.4822e-07 1.2136e-35
5.4859e-07 1.482e-36
5.4895e-07 1.8591e-35
5.4932e-07 9.672e-35
5.4968e-07 2.2181e-34
5.5005e-07 3.7026e-34
5.5042e-07 3.6273e-34
5.5079e-07 1.7101e-34
5.5115e-07 6.6321e-35
5.5152e-07 1.5379e-35
5.5189e-07 1.3762e-37
5.5226e-07 6.0998e-38
5.5263e-07 4.2897e-38
5.53e-07 3.2975e-38
5.5336e-07 2.6941e-38
5.5373e-07 2.3545e-38
5.541e-07 2.195e-38
5.5447e-07 2.1665e-38
5.5484e-07 2.3287e-38
5.5521e-07 2.684e-38
5.5558e-07 3.4237e-38
5.5596e-07 5.5568e-38
5.5633e-07 1.4938e-36
5.567e-07 3.2797e-35
5.5707e-07 8.9823e-35
5.5744e-07 2.0139e-34
5.5781e-07 1.9874e-34
5.5819e-07 9.2428e-35
5.5856e-07 2.8506e-35
5.5893e-07 6.0807e-36
5.593e-07 2.7382e-37
5.5968e-07 3.8043e-38
5.6005e-07 2.8765e-38
5.6042e-07 2.4507e-38
5.608e-07 2.2908e-38
5.6117e-07 2.3088e-38
5.6155e-07 2.5267e-38
5.6192e-07 2.9073e-38
5.623e-07 3.6252e-38
5.6267e-07 4.9823e-38
5.6305e-07 1.2349e-37
5.6342e-07 6.2139e-36
5.638e-07 4.8657e-35
5.6418e-07 1.5284e-34
5.6455e-07 2.4794e-34
5.6493e-07 2.8045e-34
5.6531e-07 1.8576e-34
5.6568e-07 1.1375e-34
5.6606e-07 7.4582e-35
5.6644e-07 3.3223e-35
5.6682e-07 7.9448e-36
5.672e-07 9.8581e-38
5.6757e-07 3.6258e-38
5.6795e-07 2.493e-38
5.6833e-07 1.8589e-38
5.6871e-07 1.4535e-38
5.6909e-07 1.1802e-38
5.6947e-07 9.5833e-39
5.6985e-07 8.1086e-39
5.7023e-07 6.8364e-39
5.7061e-07 5.5856e-39
5.7099e-07 4.4014e-39
5.7137e-07 2.8308e-39
5.7176e-07 2.4359e-39
5.7214e-07 3.2077e-39
5.7252e-07 4.2629e-39
5.729e-07 5.3771e-39
5.7328e-07 6.3824e-39
5.7367e-07 7.3118e-39
5.7405e-07 8.6164e-39
5.7443e-07 1.029e-38
5.7482e-07 1.2727e-38
5.752e-07 1.5852e-38
5.7558e-07 2.1309e-38
5.7597e-07 3.1112e-38
5.7635e-07 4.6311e-38
5.7674e-07 7.1966e-38
5.7712e-07 2.5683e-36
5.7751e-07 5.3572e-36
5.7789e-07 7.5461e-35
5.7828e-07 2.3405e-34
5.7866e-07 3.8301e-34
5.7905e-07 2.6875e-34
5.7944e-07 9.8817e-35
5.7982e-07 3.3265e-35
5.8021e-07 1.5637e-36
5.806e-07 2.2736e-37
5.8098e-07 2.4701e-37
5.8137e-07 8.4899e-37
5.8176e-07 4.4844e-35
5.8215e-07 2.2963e-34
5.8254e-07 9.1627e-34
5.8293e-07 9.6863e-34
5.8331e-07 6.0299e-34
5.837e-07 4.5497e-34
5.8409e-07 2.93e-34
5.8448e-07 1.7469e-34
5.8487e-07 1.1481e-34
5.8526e-07 4.8224e-35
5.8565e-07 1.1042e-34
5.8605e-07 2.2555e-34
5.8644e-07 2.8965e-34
5.8683e-07 2.4423e-34
5.8722e-07 1.8937e-34
5.8761e-07 2.7597e-34
5.88e-07 4.832e-34
5.884e-07 5.0522e-34
5.8879e-07 2.4125e-34
5.8918e-07 1.034e-34
5.8958e-07 1.5503e-35
5.8997e-07 7.4055e-37
5.9036e-07 9.745e-38
5.9076e-07 6.8886e-38
5.9115e-07 5.3003e-38
5.9155e-07 4.4128e-38
5.9194e-07 3.8197e-38
5.9234e-07 3.5149e-38
5.9273e-07 3.2959e-38
5.9313e-07 3.183e-38
5.9352e-07 3.2779e-38
5.9392e-07 3.6434e-38
5.9431e-07 4.4009e-38
5.9471e-07 5.6984e-38
5.9511e-07 9.0805e-38
5.9551e-07 1.8479e-36
5.959e-07 2.055e-35
5.963e-07 8.3465e-35
5.967e-07 2.885e-34
5.971e-07 4.2908e-34
5.975e-07 3.9637e-34
5.9789e-07 1.6048e-34
5.9829e-07 6.431e-35
5.9869e-07 5.9889e-35
5.9909e-07 4.6771e-35
5.9949e-07 4.9716e-35
5.9989e-07 2.819e-35
6.0029e-07 1.4391e-35
6.0069e-07 4.0807e-37
6.0109e-07 3.0914e-37
6.015e-07 1.0129e-37
6.019e-07 1.2451e-37
6.023e-07 1.6459e-37
6.027e-07 2.3158e-37
6.031e-07 3.7477e-37
6.0351e-07 1.2164e-35
6.0391e-07 1.9498e-34
6.0431e-07 5.8837e-34
6.0471e-07 9.6236e-34
6.0512e-07 9.6504e-34
6.0552e-07 9.1199e-34
6.0593e-07 6.2605e-34
6.0633e-07 4.5857e-34
6.0674e-07 1.9633e-34
6.0714e-07 3.4706e-35
6.0755e-07 2.4485e-36
6.0795e-07 1.8246e-36
6.0836e-07 1.4338e-34
6.0876e-07 5.7775e-34
6.0917e-07 1.6411e-33
6.0958e-07 1.4142e-33
6.0998e-07 1.2831e-33
6.1039e-07 7.5437e-34
6.108e-07 5.0241e-34
6.112e-07 3.1538e-34
6.1161e-07 1.7618e-34
6.1202e-07 8.8875e-35
6.1243e-07 9.0247e-35
6.1284e-07 2.0438e-34
6.1325e-07 2.2646e-34
6.1366e-07 1.313e-34
6.1407e-07 1.0373e-34
6.1448e-07 1.9311e-34
6.1489e-07 2.0988e-34
6.153e-07 1.499e-34
6.1571e-07 1.3752e-34
6.1612e-07 9.773e-35
6.1653e-07 2.6316e-35
6.1694e-07 5.6842e-36
6.1735e-07 2.054e-37
6.1776e-07 7.4744e-38
6.1818e-07 6.7499e-38
6.1859e-07 7.463e-38
6.19e-07 1.8111e-37
6.1942e-07 5.3146e-36
6.1983e-07 7.5741e-35
6.2024e-07 1.4288e-34
6.2066e-07 2.4965e-34
6.2107e-07 2.3678e-34
6.2149e-07 8.547e-35
6.219e-07 2.7714e-35
6.2232e-07 7.7052e-37
6.2273e-07 2.0878e-37
6.2315e-07 1.2317e-37
6.2356e-07 1.2727e-37
6.2398e-07 1.4244e-37
6.2439e-07 1.6846e-37
6.2481e-07 2.0674e-37
6.2523e-07 2.6622e-37
6.2565e-07 3.6523e-37
6.2606e-07 5.5147e-37
6.2648e-07 1.7066e-36
6.269e-07 8.7525e-35
6.2732e-07 6.4952e-34
6.2774e-07 1.52e-33
6.2816e-07 1.9653e-33
6.2857e-07 1.6247e-33
6.2899e-07 1.3683e-33
6.2941e-07 7.4285e-34
6.2983e-07 5.5738e-34
6.3025e-07 2.6049e-34
6.3068e-07 1.727e-34
6.311e-07 2.6492e-34
6.3152e-07 3.5073e-34
6.3194e-07 4.2979e-34
6.3236e-07 3.4526e-34
6.3278e-07 1.698e-34
6.3321e-07 4.8793e-35
6.3363e-07 1.2857e-35
6.3405e-07 2.0778e-37
6.3447e-07 1.3027e-37
6.349e-07 1.0434e-37
6.3532e-07 8.6381e-38
6.3575e-07 6.9752e-38
6.3617e-07 5.4275e-38
6.3659e-07 4.282e-38
6.3702e-07 3.5705e-38
6.3744e-07 3.1746e-38
6.3787e-07 3.0398e-38
6.383e-07 3.1439e-38
6.3872e-07 3.4952e-38
6.3915e-07 4.0906e-38
6.3957e-07 5.1341e-38
6.4e-07 6.8772e-38
6.4043e-07 1.2157e-37
6.4086e-07 7.6255e-36
6.4128e-07 2.5848e-35
6.4171e-07 1.3472e-34
6.4214e-07 3.5206e-34
6.4257e-07 5.6991e-34
6.43e-07 5.013e-34
6.4343e-07 2.1195e-34
6.4386e-07 8.0195e-35
6.4429e-07 3.7274e-36
6.4472e-07 3.9356e-37
6.4515e-07 1.9542e-37
6.4558e-07 1.9062e-37
6.4601e-07 2.0637e-37
6.4644e-07 2.3853e-37
6.4687e-07 3.0378e-37
6.473e-07 4.2683e-37
6.4773e-07 6.2282e-37
6.4817e-07 9.1031e-37
6.486e-07 1.8103e-36
6.4903e-07 8.5952e-35
6.4946e-07 1.0437e-33
6.499e-07 2.6111e-33
6.5033e-07 3.0924e-33
6.5077e-07 2.6952e-33
6.512e-07 1.8772e-33
6.5164e-07 2.0193e-33
6.5207e-07 1.6889e-33
6.5251e-07 9.243e-34
6.5294e-07 6.5755e-34
6.5338e-07 3.0474e-34
6.5381e-07 1.279e-34
6.5425e-07 3.0407e-35
6.5469e-07 2.9855e-34
6.5512e-07 3.2263e-33
6.5556e-07 1.1267e-32
6.56e-07 1.6983e-32
6.5644e-07 1.0892e-32
6.5687e-07 1.1513e-32
6.5731e-07 7.3631e-33
6.5775e-07 5.4843e-33
6.5819e-07 3.904e-33
6.5863e-07 1.7334e-33
6.5907e-07 9.8779e-34
6.5951e-07 5.8894e-34
6.5995e-07 7.2498e-34
6.6039e-07 2.8961e-33
6.6083e-07 6.5336e-33
6.6127e-07 6.5095e-33
6.6171e-07 5.0425e-33
6.6215e-07 4.093e-33
6.626e-07 3.0379e-33
6.6304e-07 1.8403e-33
6.6348e-07 1.0238e-33
6.6392e-07 7.8724e-34
6.6437e-07 6.7343e-34
6.6481e-07 5.5712e-34
6.6525e-07 3.4503e-34
6.657e-07 2.8308e-34
6.6614e-07 1.8686e-34
6.6659e-07 1.1409e-34
6.6703e-07 4.6593e-35
6.6748e-07 1.6315e-34
6.6792e-07 2.9241e-34
6.6837e-07 3.1227e-34
6.6881e-07 2.6955e-34
6.6926e-07 2.205e-34
6.6971e-07 3.1281e-34
6.7015e-07 3.4325e-34
6.706e-07 3.5718e-34
6.7105e-07 1.3721e-34
6.715e-07 4.8269e-35
6.7195e-07 5.4821e-36
6.7239e-07 3.1746e-37
6.7284e-07 9.3934e-38
6.7329e-07 6.6968e-38
6.7374e-07 5.1601e-38
6.7419e-07 4.1877e-38
6.7464e-07 3.4936e-38
6.7509e-07 3.0174e-38
6.7554e-07 2.6764e-38
6.7599e-07 2.4594e-38
6.7644e-07 2.3304e-38
6.769e-07 2.2161e-38
6.7735e-07 2.1317e-38
6.778e-07 2.1776e-38
6.7825e-07 2.3195e-38
6.787e-07 2.5997e-38
6.7916e-07 3.0759e-38
6.7961e-07 3.8873e-38
6.8006e-07 5.3365e-38
6.8052e-07 9.0328e-38
6.8097e-07 5.5159e-36
6.8143e-07 3.8247e-35
6.8188e-07 1.078e-34
6.8234e-07 2.3816e-34
6.8279e-07 3.7829e-34
6.8325e-07 2.8345e-34
6.837e-07 1.3032e-34
6.8416e-07 3.8696e-35
6.8462e-07 2.4572e-36
6.8507e-07 3.4086e-37
6.8553e-07 6.0889e-38
6.8599e-07 4.241e-38
6.8645e-07 3.3428e-38
6.869e-07 2.6009e-38
6.8736e-07 2.4608e-38
6.8782e-07 1.8524e-38
6.8828e-07 1.8907e-38
6.8874e-07 1.8811e-38
6.892e-07 1.9958e-38
6.8966e-07 1.8859e-38
6.9012e-07 2.1494e-38
6.9058e-07 2.4959e-38
6.9104e-07 2.8188e-38
6.915e-07 3.4142e-38
6.9196e-07 4.3383e-38
6.9243e-07 5.9049e-38
6.9289e-07 8.4292e-38
6.9335e-07 1.7599e-37
6.9381e-07 2.3899e-35
6.9428e-07 6.2602e-35
6.9474e-07 1.7698e-34
6.952e-07 4.6502e-34
6.9567e-07 7.3188e-34
6.9613e-07 6.1326e-34
6.966e-07 2.7994e-34
6.9706e-07 1.0388e-34
6.9753e-07 6.8864e-36
6.9799e-07 7.6541e-37
6.9846e-07 1.2458e-37
6.9892e-07 8.7439e-38
6.9939e-07 6.8957e-38
6.9986e-07 6.719e-38
7.0032e-07 9.9873e-38
7.0079e-07 1.7552e-37
7.0126e-07 2.5969e-37
7.0173e-07 3.3978e-37
7.022e-07 4.2415e-37
7.0267e-07 5.0186e-37
7.0313e-07 5.7001e-37
7.036e-07 6.4939e-37
7.0407e-07 7.6704e-37
7.0454e-07 8.954e-37
7.0501e-07 1.0734e-36
7.0548e-07 1.6322e-36
7.0595e-07 3.8547e-36
7.0643e-07 7.3037e-35
7.069e-07 2.2469e-34
7.0737e-07 5.0763e-34
7.0784e-07 8.3e-34
7.0831e-07 5.4139e-34
7.0879e-07 3.0836e-34
7.0926e-07 3.984e-34
7.0973e-07 3.4059e-33
7.1021e-07 1.9888e-32
7.1068e-07 2.6062e-32
7.1115e-07 2.2399e-32
7.1163e-07 1.8067e-32
7.121e-07 1.4414e-32
7.1258e-07 1.0457e-32
7.1306e-07 6.7016e-33
7.1353e-07 3.6964e-33
7.1401e-07 1.8922e-33
7.1448e-07 1.1768e-33
7.1496e-07 3.2572e-33
7.1544e-07 3.0453e-32
7.1592e-07 8.0788e-32
7.1639e-07 7.7695e-32
7.1687e-07 5.1269e-32
7.1735e-07 3.9087e-32
7.1783e-07 2.9384e-32
7.1831e-07 2.7025e-32
7.1879e-07 1.3082e-32
7.1927e-07 1.163e-32
7.1975e-07 6.8929e-33
7.2023e-07 5.5318e-33
7.2071e-07 4.4921e-33
7.2119e-07 3.2059e-33
7.2167e-07 3.6511e-33
7.2215e-07 7.1591e-33
7.2263e-07 1.733e-32
7.2312e-07 1.7239e-32
7.236e-07 1.2863e-32
7.2408e-07 1.0197e-32
7.2457e-07 9.9293e-33
7.2505e-07 4.5502e-33
7.2553e-07 4.5289e-33
7.2602e-07 1.5577e-33
7.265e-07 9.9147e-34
7.2699e-07 1.0088e-33
7.2747e-07 2.2008e-33
7.2796e-07 2.3451e-33
7.2844e-07 2.221e-33
7.2893e-07 1.6588e-33
7.2942e-07 2.0477e-33
7.299e-07 1.3286e-33
7.3039e-07 7.7606e-34
7.3088e-07 3.4187e-34
7.3137e-07 8.0507e-35
7.3185e-07 8.2187e-36
7.3234e-07 2.357e-35
7.3283e-07 2.068e-34
7.3332e-07 4.9472e-34
7.3381e-07 5.8704e-34
7.343e-07 4.4955e-34
7.3479e-07 3.9934e-34
7.3528e-07 3.1385e-34
7.3577e-07 2.259e-34
7.3626e-07 1.4801e-34
7.3675e-07 5.0542e-35
7.3724e-07 1.578e-35
7.3774e-07 4.7221e-37
7.3823e-07 5.5065e-36
7.3872e-07 5.8031e-35
7.3921e-07 1.9248e-34
7.3971e-07 3.6846e-34
7.402e-07 4.2324e-34
7.407e-07 1.837e-34
7.4119e-07 5.1721e-35
7.4169e-07 1.3314e-35
7.4218e-07 7.8117e-37
7.4268e-07 7.2088e-38
7.4317e-07 4.9822e-38
7.4367e-07 3.7152e-38
7.4416e-07 2.8875e-38
7.4466e-07 2.2264e-38
7.4516e-07 1.7146e-38
7.4565e-07 1.3611e-38
7.4615e-07 1.0961e-38
7.4665e-07 9.7688e-39
7.4715e-07 9.5198e-39
7.4765e-07 1.0063e-38
7.4815e-07 1.0691e-38
7.4865e-07 1.1256e-38
7.4915e-07 1.1683e-38
7.4965e-07 1.2266e-38
7.5015e-07 1.2521e-38
7.5065e-07 1.2929e-38
7.5115e-07 1.364e-38
7.5165e-07 1.4458e-38
7.5215e-07 1.6375e-38
7.5265e-07 1.9031e-38
7.5315e-07 2.2757e-38
7.5366e-07 2.7696e-38
7.5416e-07 3.4656e-38
7.5466e-07 4.4757e-38
7.5517e-07 6.0705e-38
7.5567e-07 9.079e-38
7.5618e-07 3.6087e-36
7.5668e-07 7.6573e-36
7.5719e-07 5.3331e-35
7.5769e-07 1.7554e-34
7.582e-07 3.6957e-34
7.587e-07 4.7248e-34
7.5921e-07 3.6487e-34
7.5972e-07 2.5672e-34
7.6022e-07 1.3409e-34
7.6073e-07 1.0113e-35
7.6124e-07 4.3751e-37
7.6175e-07 6.638e-38
7.6225e-07 5.5431e-38
7.6276e-07 4.6685e-38
7.6327e-07 3.7317e-38
7.6378e-07 3.2541e-38
7.6429e-07 2.8723e-38
7.648e-07 2.7037e-38
7.6531e-07 2.5638e-38
7.6582e-07 2.4619e-38
7.6633e-07 2.5426e-38
7.6685e-07 2.6969e-38
7.6736e-07 3.068e-38
7.6787e-07 3.3986e-38
7.6838e-07 3.9073e-38
7.689e-07 5.3702e-38
7.6941e-07 1.8906e-37
7.6992e-07 7.5959e-37
7.7044e-07 1.9263e-36
7.7095e-07 3.4313e-36
7.7146e-07 1.6782e-35
7.7198e-07 5.3631e-35
7.7249e-07 2.1112e-34
7.7301e-07 5.2359e-34
7.7353e-07 6.4942e-34
7.7404e-07 4.876e-34
7.7456e-07 2.4923e-34
7.7508e-07 9.837e-35
7.7559e-07 3.707e-35
7.7611e-07 2.321e-35
7.7663e-07 2.3901e-35
7.7715e-07 2.9092e-35
7.7767e-07 3.5819e-35
7.7819e-07 4.4835e-35
7.787e-07 5.7546e-35
7.7922e-07 7.6997e-35
7.7974e-07 1.1064e-34
7.8026e-07 1.8132e-34
7.8079e-07 1.5335e-33
7.8131e-07 6.0067e-32
7.8183e-07 2.69e-31
7.8235e-07 4.5179e-31
7.8287e-07 3.7814e-31
7.8339e-07 2.7996e-31
7.8392e-07 2.5226e-31
7.8444e-07 2.2356e-31
7.8496e-07 1.935e-31
7.8549e-07 1.0825e-31
7.8601e-07 7.0503e-32
7.8654e-07 5.4943e-32
7.8706e-07 3.2054e-32
7.8759e-07 6.1836e-32
7.8811e-07 1.7732e-31
7.8864e-07 2.8148e-31
7.8917e-07 2.3329e-31
7.8969e-07 1.5716e-31
7.9022e-07 1.4631e-31
7.9075e-07 1.1484e-31
7.9127e-07 8.3759e-32
7.918e-07 4.9014e-32
7.9233e-07 3.3477e-32
7.9286e-07 2.1888e-32
7.9339e-07 2.7572e-32
7.9392e-07 2.7541e-32
7.9445e-07 2.4385e-32
7.9498e-07 2.513e-32
7.9551e-07 2.2898e-32
7.9604e-07 1.6925e-32
7.9657e-07 1.4028e-32
7.971e-07 8.5685e-33
7.9764e-07 6.4649e-33
7.9817e-07 4.918e-33
7.987e-07 3.7083e-33
7.9923e-07 3.1691e-33
7.9977e-07 3.2988e-33
8.003e-07 2.1963e-33
8.0083e-07 1.1912e-33
8.0137e-07 1.8517e-33
8.019e-07 6.8499e-33
8.0244e-07 1.4221e-32
8.0297e-07 1.2474e-32
8.0351e-07 6.981e-33
8.0405e-07 7.8446e-33
8.0458e-07 6.2394e-33
8.0512e-07 4.6459e-33
8.0566e-07 3.5057e-33
8.062e-07 1.3701e-33
8.0673e-07 1.2458e-33
8.0727e-07 9.5075e-34
8.0781e-07 7.4851e-34
8.0835e-07 6.2768e-34
8.0889e-07 1.53e-33
8.0943e-07 2.6953e-33
8.0997e-07 3.6807e-33
8.1051e-07 2.5224e-33
8.1105e-07 2.1647e-33
8.1159e-07 2.6127e-33
8.1213e-07 3.1616e-33
8.1268e-07 2.169e-33
8.1322e-07 1.1146e-33
8.1376e-07 4.7729e-34
8.1431e-07 2.0506e-34
8.1485e-07 6.8283e-35
8.1539e-07 1.4004e-36
8.1594e-07 1.0016e-36
8.1648e-07 1.0778e-36
8.1703e-07 1.2829e-36
8.1757e-07 1.6466e-36
8.1812e-07 1.6833e-35
8.1866e-07 1.2948e-34
8.1921e-07 1.6237e-33
8.1976e-07 5.3061e-33
8.203e-07 8.076e-33
8.2085e-07 6.2171e-33
8.214e-07 6.2391e-33
8.2195e-07 4.6551e-33
8.225e-07 5.175e-33
8.2304e-07 3.3072e-33
8.2359e-07 1.74e-33
8.2414e-07 1.0597e-33
8.2469e-07 4.9951e-34
8.2524e-07 3.7639e-34
8.258e-07 5.7411e-34
8.2635e-07 6.0362e-34
8.269e-07 3.2129e-34
8.2745e-07 1.8372e-34
8.28e-07 3.7404e-33
8.2855e-07 1.0599e-32
8.2911e-07 2.1175e-32
8.2966e-07 2.0162e-32
8.3021e-07 1.6668e-32
8.3077e-07 1.2893e-32
8.3132e-07 1.4147e-32
8.3188e-07 1.2154e-32
8.3243e-07 6.2489e-33
8.3299e-07 4.5715e-33
8.3354e-07 3.2071e-33
8.341e-07 2.4482e-33
8.3466e-07 1.1438e-33
8.3522e-07 3.2859e-34
8.3577e-07 1.1137e-35
8.3633e-07 3.658e-36
8.3689e-07 6.984e-35
8.3745e-07 2.025e-33
8.3801e-07 4.8282e-33
8.3857e-07 7.4185e-33
8.3913e-07 6.9264e-33
8.3969e-07 4.0912e-33
8.4025e-07 4.0979e-33
8.4081e-07 3.8125e-33
8.4137e-07 4.1258e-33
8.4193e-07 1.8958e-33
8.4249e-07 1.4508e-33
8.4305e-07 5.4666e-34
8.4362e-07 1.4633e-34
8.4418e-07 3.0686e-35
8.4474e-07 6.3935e-36
8.4531e-07 6.3074e-37
8.4587e-07 4.8384e-37
8.4644e-07 4.0666e-37
8.47e-07 3.5229e-37
8.4757e-07 3.2327e-37
8.4813e-07 3.2078e-37
8.487e-07 3.4114e-37
8.4926e-07 5.1498e-37
8.4983e-07 1.758e-36
8.504e-07 9.0062e-35
8.5097e-07 3.3108e-34
8.5153e-07 8.2931e-34
8.521e-07 1.175e-33
8.5267e-07 1.5612e-33
8.5324e-07 1.5056e-33
8.5381e-07 8.2342e-34
8.5438e-07 3.7701e-34
8.5495e-07 1.5077e-34
8.5552e-07 4.2766e-35
8.5609e-07 3.3328e-35
8.5666e-07 3.9271e-35
8.5723e-07 4.5291e-35
8.5781e-07 5.1423e-35
8.5838e-07 5.7492e-35
8.5895e-07 6.48e-35
8.5952e-07 7.1922e-35
8.601e-07 7.5862e-35
8.6067e-07 7.5631e-35
8.6125e-07 7.2052e-35
8.6182e-07 7.8521e-35
8.624e-07 1.1409e-34
8.6297e-07 2.3659e-34
8.6355e-07 2.8197e-34
8.6412e-07 3.2065e-34
8.647e-07 3.1075e-34
8.6528e-07 3.9011e-34
8.6586e-07 4.054e-34
8.6643e-07 4.8388e-34
8.6701e-07 7.9525e-34
8.6759e-07 4.536e-32
8.6817e-07 3.1268e-31
8.6875e-07 1.0012e-30
8.6933e-07 1.5182e-30
8.6991e-07 1.2504e-30
8.7049e-07 9.0558e-31
8.7107e-07 8.1053e-31
8.7165e-07 7.058e-31
8.7223e-07 4.6004e-31
8.7282e-07 3.8767e-31
8.734e-07 3.7491e-31
8.7398e-07 3.3461e-31
8.7457e-07 2.2826e-31
8.7515e-07 1.6026e-31
8.7573e-07 1.3286e-31
8.7632e-07 1.1102e-31
8.769e-07 9.1859e-32
8.7749e-07 6.7242e-32
8.7807e-07 5.1955e-32
8.7866e-07 4.2695e-32
8.7925e-07 2.7948e-32
8.7983e-07 2.0512e-32
8.8042e-07 1.7384e-32
8.8101e-07 1.2941e-32
8.816e-07 8.4988e-33
8.8218e-07 5.4044e-33
8.8277e-07 3.2123e-33
8.8336e-07 2.2621e-33
8.8395e-07 1.3429e-33
8.8454e-07 1.5656e-33
8.8513e-07 2.098e-33
8.8572e-07 2.6137e-33
8.8631e-07 2.7859e-33
8.8691e-07 1.4792e-33
8.875e-07 7.8546e-34
8.8809e-07 5.2468e-34
8.8868e-07 2.2461e-34
8.8928e-07 1.7068e-34
8.8987e-07 6.5005e-35
8.9046e-07 1.6404e-35
8.9106e-07 1.634e-35
8.9165e-07 2.6035e-34
8.9225e-07 6.3782e-33
8.9284e-07 2.7082e-32
8.9344e-07 5.103e-32
8.9404e-07 5.0641e-32
8.9463e-07 2.9374e-32
8.9523e-07 2.7266e-32
8.9583e-07 2.6737e-32
8.9642e-07 1.9757e-32
8.9702e-07 1.2542e-32
8.9762e-07 1.1604e-32
8.9822e-07 1.2561e-32
8.9882e-07 1.1864e-32
8.9942e-07 5.226e-33
9.0002e-07 4.8482e-33
9.0062e-07 4.0742e-33
9.0122e-07 3.6827e-33
9.0182e-07 2.2142e-33
9.0243e-07 1.1875e-33
9.0303e-07 5.2848e-34
9.0363e-07 1.3601e-34
9.0423e-07 5.1649e-35
9.0484e-07 1.4786e-35
9.0544e-07 1.9068e-35
9.0605e-07 2.701e-35
9.0665e-07 2.6936e-34
9.0726e-07 2.1862e-33
9.0786e-07 2.0416e-32
9.0847e-07 6.3036e-32
9.0907e-07 1.0816e-31
9.0968e-07 1.0514e-31
9.1029e-07 7.059e-32
9.1089e-07 7.3003e-32
9.115e-07 6.6898e-32
9.1211e-07 5.0392e-32
9.1272e-07 4.2872e-32
9.1333e-07 2.3709e-32
9.1394e-07 1.1717e-32
9.1455e-07 6.93e-33
9.1516e-07 2.7523e-33
9.1577e-07 1.6153e-33
9.1638e-07 1.5451e-33
9.1699e-07 2.0027e-33
9.176e-07 1.9613e-33
9.1822e-07 1.0136e-33
9.1883e-07 1.4279e-33
9.1944e-07 6.8571e-33
9.2006e-07 9.5865e-32
9.2067e-07 3.9387e-31
9.2129e-07 7.0022e-31
9.219e-07 6.4992e-31
9.2252e-07 4.1192e-31
9.2313e-07 4.6562e-31
9.2375e-07 4.6889e-31
9.2436e-07 4.4633e-31
9.2498e-07 2.9388e-31
9.256e-07 1.5875e-31
9.2622e-07 1.1109e-31
9.2683e-07 4.2713e-32
9.2745e-07 4.8743e-32
9.2807e-07 1.9778e-32
9.2869e-07 2.8546e-32
9.2931e-07 8.6334e-33
9.2993e-07 1.7548e-32
9.3055e-07 2.3289e-31
9.3117e-07 3.9423e-31
9.3179e-07 5.9938e-31
9.3242e-07 4.2064e-31
9.3304e-07 3.9852e-31
9.3366e-07 2.8686e-31
9.3429e-07 3.5499e-31
9.3491e-07 3.6036e-31
9.3553e-07 2.991e-31
9.3616e-07 1.9507e-31
9.3678e-07 1.3778e-31
9.3741e-07 8.6141e-32
9.3803e-07 4.0562e-32
9.3866e-07 3.5153e-32
9.3929e-07 2.4873e-32
9.3991e-07 2.4418e-32
9.4054e-07 2.225e-32
9.4117e-07 1.7225e-32
9.418e-07 1.1968e-32
9.4242e-07 8.7187e-33
9.4305e-07 6.5981e-33
9.4368e-07 9.4582e-33
9.4431e-07 3.8052e-32
9.4494e-07 7.5924e-32
9.4557e-07 8.2703e-32
9.462e-07 4.5379e-32
9.4684e-07 2.6866e-32
9.4747e-07 2.7272e-32
9.481e-07 3.0926e-32
9.4873e-07 2.0446e-32
9.4937e-07 2.4117e-32
9.5e-07 1.1936e-32
