2.8e-07 -0
2.8023e-07 -0
2.8047e-07 -0
2.807e-07 -0
2.8094e-07 -0
2.8117e-07 -0
2.814e-07 -0
2.8164e-07 -0
2.8187e-07 -0
2.8211e-07 -0
2.8234e-07 -0
2.8258e-07 -0
2.8282e-07 -0
2.8305e-07 -0
2.8329e-07 -0
2.8352e-07 -0
2.8376e-07 -0
2.84e-07 -0
2.8423e-07 -0
2.8447e-07 -0
2.8471e-07 -0
2.8495e-07 -0
2.8518e-07 -0
2.8542e-07 -0
2.8566e-07 -0
2.859e-07 -0
2.8614e-07 -0
2.8638e-07 -0
2.8661e-07 -0
2.8685e-07 -0
2.8709e-07 -0
2.8733e-07 -0
2.8757e-07 -0
2.8781e-07 -0
2.8805e-07 -0
2.8829e-07 -0
2.8853e-07 -0
2.8877e-07 -0
2.8901e-07 -0
2.8926e-07 -0
2.895e-07 -0
2.8974e-07 -0
2.8998e-07 -0
2.9022e-07 -0
2.9046e-07 -0
2.9071e-07 -0
2.9095e-07 -0
2.9119e-07 -0
2.9143e-07 -0
2.9168e-07 -0
2.9192e-07 -0
2.9216e-07 -0
2.9241e-07 -0
2.9265e-07 -0
2.929e-07 -0
2.9314e-07 -0
2.9339e-07 -0
2.9363e-07 -0
2.9388e-07 -0
2.9412e-07 -0
2.9437e-07 -0
2.9461e-07 -0
2.9486e-07 -0
2.951e-07 -0
2.9535e-07 -0
2.956e-07 -0
2.9584e-07 -0
2.9609e-07 -0
2.9634e-07 -0
2.9658e-07 -0
2.9683e-07 -0
2.9708e-07 -0
2.9733e-07 -0
2.9757e-07 -0
2.9782e-07 -0
2.9807e-07 -0
2.9832e-07 -0
2.9857e-07 -0
2.9882e-07 -0
2.9907e-07 -0
2.9932e-07 -0
2.9957e-07 -0
2.9982e-07 -0
3.0007e-07 -0
3.0032e-07 -0
3.0057e-07 -0
3.0082e-07 -0
3.0107e-07 -0
3.0132e-07 -0
3.0157e-07 -0
3.0182e-07 -0
3.0207e-07 -0
3.0233e-07 -0
3.0258e-07 -0
3.0283e-07 -0
3.0308e-07 -0
3.0334e-07 -0
3.0359e-07 -0
3.0384e-07 -0
3.041e-07 -0
3.0435e-07 -0
3.046e-07 -0
3.0486e-07 -0
3.0511e-07 -0
3.0537e-07 -0
3.0562e-07 -0
3.0588e-07 -0
3.0613e-07 -0
3.0639e-07 -0
3.0664e-07 -0
3.069e-07 -0
3.0715e-07 -0
3.0741e-07 -0
3.0767e-07 -0
3.0792e-07 -0
3.0818e-07 -0
3.0844e-07 -0
3.087e-07 -0
3.0895e-07 -0
3.0921e-07 -0
3.0947e-07 -0
3.0973e-07 -0
3.0998e-07 -0
3.1024e-07 -0
3.105e-07 -0
3.1076e-07 -0
3.1102e-07 -0
3.1128e-07 -0
3.1154e-07 -0
3.118e-07 -0
3.1206e-07 -0
3.1232e-07 -0
3.1258e-07 -0
3.1284e-07 -0
3.131e-07 -0
3.1336e-07 -0
3.1362e-07 -0
3.1389e-07 -0
3.1415e-07 -0
3.1441e-07 -0
3.1467e-07 -0
3.1494e-07 -0
3.152e-07 -0
3.1546e-07 -0
3.1572e-07 -0
3.1599e-07 -0
3.1625e-07 -0
3.1651e-07 -0
3.1678e-07 -0
3.1704e-07 -0
3.1731e-07 -0
3.1757e-07 -0
3.1784e-07 -0
3.181e-07 -0
3.1837e-07 -0
3.1863e-07 -0
3.189e-07 -0
3.1917e-07 -0
3.1943e-07 -0
3.197e-07 -0
3.1996e-07 -0
3.2023e-07 -0
3.205e-07 -0
3.2077e-07 -0
3.2103e-07 -0
3.213e-07 -0
3.2157e-07 -0
3.2184e-07 -0
3.2211e-07 -0
3.2238e-07 -0
3.2264e-07 -0
3.2291e-07 -0
3.2318e-07 -0
3.2345e-07 -0
3.2372e-07 -0
3.2399e-07 -0
3.2426e-07 -0
3.2453e-07 -0
3.248e-07 -0
3.2507e-07 -0
3.2535e-07 -0
3.2562e-07 -0
3.2589e-07 -0
3.2616e-07 -0
3.2643e-07 -0
3.2671e-07 -0
3.2698e-07 -0
3.2725e-07 -0
3.2752e-07 -0
3.278e-07 -0
3.2807e-07 -0
3.2834e-07 -0
3.2862e-07 -0
3.2889e-07 -0
3.2917e-07 -0
3.2944e-07 -0
3.2972e-07 -0
3.2999e-07 -0
3.3027e-07 -0
3.3054e-07 -0
3.3082e-07 -0
3.3109e-07 -0
3.3137e-07 -0
3.3165e-07 -0
3.3192e-07 -0
3.322e-07 -0
3.3248e-07 -0
3.3275e-07 -0
3.3303e-07 -0
3.3331e-07 -0
3.3359e-07 -0
3.3387e-07 -0
3.3414e-07 -0
3.3442e-07 -0
3.347e-07 -0
3.3498e-07 -0
3.3526e-07 -0
3.3554e-07 -0
3.3582e-07 -0
3.361e-07 -0
3.3638e-07 -0
3.3666e-07 -0
3.3694e-07 -0
3.3722e-07 -0
3.375e-07 -0
3.3779e-07 -0
3.3807e-07 -0
3.3835e-07 -0
3.3863e-07 -0
3.3891e-07 -0
3.392e-07 -0
3.3948e-07 -0
3.3976e-07 -0
3.4005e-07 -0
3.4033e-07 -0
3.4061e-07 -0
3.409e-07 -0
3.4118e-07 -0
3.4147e-07 -0
3.4175e-07 -0
3.4204e-07 -0
3.4232e-07 -0
3.4261e-07 -0
3.4289e-07 -0
3.4318e-07 -0
3.4347e-07 -0
3.4375e-07 -0
3.4404e-07 -0
3.4433e-07 -0
3.4461e-07 -0
3.449e-07 -0
3.4519e-07 -0
3.4548e-07 -0
3.4577e-07 -0
3.4605e-07 -0
3.4634e-07 -0
3.4663e-07 -0
3.4692e-07 -0
3.4721e-07 -0
3.475e-07 -0
3.4779e-07 -0
3.4808e-07 -0
3.4837e-07 -0
3.4866e-07 -0
3.4895e-07 -0
3.4924e-07 -0
3.4953e-07 -0
3.4983e-07 -0
3.5012e-07 -0
3.5041e-07 -0
3.507e-07 -0
3.5099e-07 -0
3.5129e-07 -0
3.5158e-07 -0
3.5187e-07 -0
3.5217e-07 -0
3.5246e-07 -0
3.5276e-07 -0
3.5305e-07 -0
3.5334e-07 -0
3.5364e-07 -0
3.5393e-07 -0
3.5423e-07 -0
3.5452e-07 -0
3.5482e-07 -0
3.5512e-07 -0
3.5541e-07 -0
3.5571e-07 -0
3.5601e-07 -0
3.563e-07 -0
3.566e-07 -0
3.569e-07 -0
3.572e-07 -0
3.5749e-07 -0
3.5779e-07 -0
3.5809e-07 -0
3.5839e-07 -0
3.5869e-07 -0
3.5899e-07 -0
3.5929e-07 -0
3.5959e-07 -0
3.5989e-07 -0
3.6019e-07 -0
3.6049e-07 -0
3.6079e-07 -0
3.6109e-07 -0
3.6139e-07 -0
3.6169e-07 -0
3.6199e-07 -0
3.623e-07 -0
3.626e-07 -0
3.629e-07 -0
3.632e-07 -0
3.6351e-07 -0
3.6381e-07 -0
3.6411e-07 -0
3.6442e-07 -0
3.6472e-07 -0
3.6502e-07 -0
3.6533e-07 -0
3.6563e-07 -0
3.6594e-07 -0
3.6624e-07 -0
3.6655e-07 -0
3.6686e-07 -0
3.6716e-07 -0
3.6747e-07 -0
3.6777e-07 -0
3.6808e-07 -0
3.6839e-07 -0
3.687e-07 -0
3.69e-07 -0
3.6931e-07 -0
3.6962e-07 -0
3.6993e-07 -0
3.7024e-07 -0
3.7054e-07 -0
3.7085e-07 -0
3.7116e-07 -0
3.7147e-07 -0
3.7178e-07 -0
3.7209e-07 -0
3.724e-07 -0
3.7271e-07 -0
3.7302e-07 -0
3.7334e-07 -0
3.7365e-07 -0
3.7396e-07 -0
3.7427e-07 -0
3.7458e-07 -0
3.749e-07 -0
3.7521e-07 -0
3.7552e-07 -0
3.7583e-07 -0
3.7615e-07 -0
3.7646e-07 -0
3.7678e-07 -0
3.7709e-07 -0
3.7741e-07 -0
3.7772e-07 -0
3.7804e-07 -0
3.7835e-07 -0
3.7867e-07 -0
3.7898e-07 -0
3.793e-07 -0
3.7961e-07 -0
3.7993e-07 -0
3.8025e-07 -0
3.8057e-07 -0
3.8088e-07 -0
3.812e-07 -0
3.8152e-07 -0
3.8184e-07 -0
3.8216e-07 -0
3.8247e-07 -0
3.8279e-07 -0
3.8311e-07 -0
3.8343e-07 -0
3.8375e-07 -0
3.8407e-07 -0
3.8439e-07 -0
3.8471e-07 -0
3.8503e-07 -0
3.8536e-07 -0
3.8568e-07 -0
3.86e-07 -0
3.8632e-07 -0
3.8664e-07 -0
3.8697e-07 -0
3.8729e-07 -0
3.8761e-07 -0
3.8793e-07 -0
3.8826e-07 -0
3.8858e-07 -0
3.8891e-07 -0
3.8923e-07 -0
3.8956e-07 -0
3.8988e-07 -0
3.9021e-07 -0
3.9053e-07 -0
3.9086e-07 -0
3.9118e-07 -0
3.9151e-07 -0
3.9184e-07 -0
3.9216e-07 -0
3.9249e-07 -0
3.9282e-07 -0
3.9315e-07 -0
3.9347e-07 -0
3.938e-07 -0
3.9413e-07 -0
3.9446e-07 -0
3.9479e-07 -0
3.9512e-07 -0
3.9545e-07 -0
3.9578e-07 -0
3.9611e-07 -0
3.9644e-07 -0
3.9677e-07 -0
3.971e-07 -0
3.9743e-07 -0
3.9776e-07 -0
3.9809e-07 -0
3.9843e-07 -0
3.9876e-07 -0
3.9909e-07 -0
3.9942e-07 -0
3.9976e-07 -0
4.0009e-07 -0
4.0042e-07 -0
4.0076e-07 -0
4.0109e-07 -0
4.0143e-07 -0
4.0176e-07 -0
4.021e-07 -0
4.0243e-07 -0
4.0277e-07 -0
4.031e-07 -0
4.0344e-07 -0
4.0378e-07 -0
4.0411e-07 -0
4.0445e-07 -0
4.0479e-07 -0
4.0513e-07 -0
4.0546e-07 -0
4.058e-07 -0
4.0614e-07 -0
4.0648e-07 -0
4.0682e-07 -0
4.0716e-07 -0
4.075e-07 -0
4.0784e-07 -0
4.0818e-07 -0
4.0852e-07 -0
4.0886e-07 -0
4.092e-07 -0
4.0954e-07 -0
4.0988e-07 -0
4.1023e-07 -0
4.1057e-07 -0
4.1091e-07 -0
4.1125e-07 -0
4.116e-07 -0
4.1194e-07 -0
4.1228e-07 -0
4.1263e-07 -0
4.1297e-07 -0
4.1332e-07 -0
4.1366e-07 -0
4.1401e-07 -0
4.1435e-07 -0
4.147e-07 -0
4.1504e-07 -0
4.1539e-07 -0
4.1574e-07 -0
4.1608e-07 -0
4.1643e-07 -0
4.1678e-07 -0
4.1712e-07 -0
4.1747e-07 -0
4.1782e-07 -0
4.1817e-07 -0
4.1852e-07 -0
4.1887e-07 -0
4.1922e-07 -0
4.1957e-07 -0
4.1992e-07 -0
4.2027e-07 -0
4.2062e-07 -0
4.2097e-07 -0
4.2132e-07 -0
4.2167e-07 -0
4.2202e-07 -0
4.2238e-07 -0
4.2273e-07 -0
4.2308e-07 -0
4.2343e-07 -0
4.2379e-07 -0
4.2414e-07 -0
4.2449e-07 -0
4.2485e-07 -0
4.252e-07 -0
4.2556e-07 -0
4.2591e-07 -0
4.2627e-07 -0
4.2662e-07 -0
4.2698e-07 -0
4.2733e-07 -0
4.2769e-07 -0
4.2805e-07 -0
4.2841e-07 -0
4.2876e-07 -0
4.2912e-07 -0
4.2948e-07 -0
4.2984e-07 -0
4.302e-07 -0
4.3055e-07 -0
4.3091e-07 -0
4.3127e-07 -0
4.3163e-07 -0
4.3199e-07 -0
4.3235e-07 -0
4.3271e-07 -0
4.3307e-07 -0
4.3344e-07 -0
4.338e-07 -0
4.3416e-07 -0
4.3452e-07 -0
4.3488e-07 -0
4.3525e-07 -0
4.3561e-07 -0
4.3597e-07 -0
4.3634e-07 -0
4.367e-07 -0
4.3707e-07 -0
4.3743e-07 -0
4.3779e-07 -0
4.3816e-07 -0
4.3853e-07 -0
4.3889e-07 -0
4.3926e-07 -0
4.3962e-07 -0
4.3999e-07 -0
4.4036e-07 -0
4.4073e-07 -0
4.4109e-07 -0
4.4146e-07 -0
4.4183e-07 -0
4.422e-07 -0
4.4257e-07 -0
4.4294e-07 -0
4.4331e-07 -0
4.4368e-07 -0
4.4405e-07 -0
4.4442e-07 -0
4.4479e-07 -0
4.4516e-07 -0
4.4553e-07 -0
4.459e-07 -0
4.4627e-07 -0
4.4664e-07 -0
4.4702e-07 -0
4.4739e-07 -0
4.4776e-07 -0
4.4814e-07 -0
4.4851e-07 -0
4.4889e-07 -0
4.4926e-07 -0
4.4963e-07 -0
4.5001e-07 -0
4.5038e-07 -0
4.5076e-07 -0
4.5114e-07 -0
4.5151e-07 -0
4.5189e-07 -0
4.5227e-07 -0
4.5264e-07 -0
4.5302e-07 -0
4.534e-07 -0
4.5378e-07 -0
4.5416e-07 -0
4.5454e-07 -0
4.5491e-07 -0
4.5529e-07 -0
4.5567e-07 -0
4.5605e-07 -0
4.5643e-07 -0
4.5682e-07 -0
4.572e-07 -0
4.5758e-07 -0
4.5796e-07 -0
4.5834e-07 -0
4.5872e-07 -0
4.5911e-07 -0
4.5949e-07 -0
4.5987e-07 -0
4.6026e-07 -0
4.6064e-07 -0
4.6102e-07 -0
4.6141e-07 -0
4.6179e-07 -0
4.6218e-07 -0
4.6256e-07 -0
4.6295e-07 -0
4.6334e-07 -0
4.6372e-07 -0
4.6411e-07 -0
4.645e-07 -0
4.6489e-07 -0
4.6527e-07 -0
4.6566e-07 -0
4.6605e-07 -0
4.6644e-07 -0
4.6683e-07 -0
4.6722e-07 -0
4.6761e-07 -0
4.68e-07 -0
4.6839e-07 -0
4.6878e-07 -0
4.6917e-07 -0
4.6956e-07 -0
4.6995e-07 -0
4.7034e-07 -0
4.7074e-07 -0
4.7113e-07 -0
4.7152e-07 -0
4.7192e-07 -0
4.7231e-07 -0
4.727e-07 -0
4.731e-07 -0
4.7349e-07 -0
4.7389e-07 -0
4.7428e-07 -0
4.7468e-07 -0
4.7507e-07 -0
4.7547e-07 -0
4.7587e-07 -0
4.7626e-07 -0
4.7666e-07 -0
4.7706e-07 -0
4.7746e-07 -0
4.7786e-07 -0
4.7825e-07 -0
4.7865e-07 -0
4.7905e-07 -0
4.7945e-07 -0
4.7985e-07 -0
4.8025e-07 -0
4.8065e-07 -0
4.8105e-07 -0
4.8146e-07 -0
4.8186e-07 -0
4.8226e-07 -0
4.8266e-07 -0
4.8306e-07 -0
4.8347e-07 -0
4.8387e-07 -0
4.8427e-07 -0
4.8468e-07 -0
4.8508e-07 -0
4.8549e-07 -0
4.8589e-07 -0
4.863e-07 -0
4.867e-07 -0
4.8711e-07 -0
4.8752e-07 -0
4.8792e-07 -0
4.8833e-07 -0
4.8874e-07 -0
4.8914e-07 -0
4.8955e-07 -0
4.8996e-07 -0
4.9037e-07 -0
4.9078e-07 -0
4.9119e-07 -0
4.916e-07 -0
4.9201e-07 -0
4.9242e-07 -0
4.9283e-07 -0
4.9324e-07 -0
4.9365e-07 -0
4.9406e-07 -0
4.9448e-07 -0
4.9489e-07 -0
4.953e-07 -0
4.9571e-07 -0
4.9613e-07 -0
4.9654e-07 -0
4.9696e-07 1.9087e-41
4.9737e-07 9.3353e-40
4.9779e-07 1.645e-39
4.982e-07 2.9134e-39
4.9862e-07 3.9493e-39
4.9903e-07 4.7527e-39
4.9945e-07 6.2207e-39
4.9986e-07 8.138e-39
5.0028e-07 1.1721e-38
5.007e-07 1.7852e-38
5.0112e-07 3.1162e-38
5.0154e-07 2.3459e-37
5.0195e-07 3.6474e-35
5.0237e-07 1.7754e-34
5.0279e-07 2.2074e-34
5.0321e-07 1.1963e-34
5.0363e-07 1.2555e-35
5.0405e-07 6.2012e-38
5.0447e-07 2.5146e-38
5.0489e-07 1.4919e-38
5.0531e-07 1.0104e-38
5.0573e-07 7.3051e-39
5.0616e-07 5.2889e-39
5.0658e-07 4.4056e-39
5.07e-07 3.8834e-39
5.0742e-07 2.3894e-39
5.0785e-07 1.2285e-39
5.0827e-07 1.6311e-40
5.087e-07 8.8495e-41
5.0912e-07 1.7352e-41
5.0954e-07 -0
5.0997e-07 -0
5.104e-07 -4.5115e-41
5.1082e-07 1.4229e-40
5.1125e-07 1.1175e-39
5.1167e-07 2.1187e-39
5.121e-07 3.5259e-39
5.1253e-07 4.6486e-39
5.1296e-07 5.183e-39
5.1338e-07 7.1229e-39
5.1381e-07 9.6234e-39
5.1424e-07 1.3533e-38
5.1467e-07 2.0583e-38
5.151e-07 3.73e-38
5.1553e-07 1.5295e-36
5.1596e-07 4.0135e-35
5.1639e-07 1.6839e-34
5.1682e-07 2.3784e-34
5.1725e-07 1.2498e-34
5.1768e-07 2.5224e-35
5.1811e-07 1.3688e-37
5.1855e-07 3.3165e-38
5.1898e-07 2.143e-38
5.1941e-07 1.6411e-38
5.1984e-07 1.464e-38
5.2028e-07 1.4765e-38
5.2071e-07 1.6826e-38
5.2115e-07 2.322e-38
5.2158e-07 4.0668e-38
5.2202e-07 4.1491e-36
5.2245e-07 6.8494e-35
5.2289e-07 1.5815e-34
5.2332e-07 1.4017e-34
5.2376e-07 4.3049e-35
5.242e-07 6.7994e-36
5.2464e-07 2.8669e-38
5.2507e-07 1.5681e-38
5.2551e-07 1.0328e-38
5.2595e-07 7.4093e-39
5.2639e-07 5.2264e-39
5.2683e-07 4.0031e-39
5.2727e-07 3.165e-39
5.2771e-07 3.0071e-39
5.2815e-07 3.2656e-39
5.2859e-07 3.3645e-39
5.2903e-07 2.8787e-39
5.2947e-07 3.7168e-39
5.2991e-07 4.3692e-39
5.3035e-07 5.6984e-39
5.308e-07 7.1316e-39
5.3124e-07 1.1313e-38
5.3168e-07 1.7748e-38
5.3213e-07 3.3692e-38
5.3257e-07 3.963e-36
5.3301e-07 5.6072e-35
5.3346e-07 1.8094e-34
5.339e-07 1.4608e-34
5.3435e-07 4.4753e-35
5.3479e-07 2.5812e-36
5.3524e-07 3.2502e-38
5.3569e-07 1.7263e-38
5.3613e-07 1.2051e-38
5.3658e-07 1.0029e-38
5.3703e-07 9.3718e-39
5.3748e-07 9.2069e-39
5.3793e-07 9.6876e-39
5.3837e-07 1.101e-38
5.3882e-07 1.2797e-38
5.3927e-07 1.6056e-38
5.3972e-07 2.1209e-38
5.4017e-07 3.3826e-38
5.4062e-07 7.4514e-38
5.4107e-07 1.1773e-35
5.4153e-07 1.2842e-34
5.4198e-07 2.4203e-34
5.4243e-07 2.4037e-34
5.4288e-07 1.0244e-34
5.4334e-07 6.6278e-35
5.4379e-07 5.9797e-35
5.4424e-07 2.9363e-35
5.447e-07 1.1842e-35
5.4515e-07 8.7794e-38
5.4561e-07 2.3081e-35
5.4606e-07 6.3146e-35
5.4652e-07 1.2278e-34
5.4697e-07 9.4568e-35
5.4743e-07 7.1823e-35
5.4788e-07 9.0072e-36
5.4834e-07 2.068e-36
5.488e-07 1.105e-35
5.4926e-07 2.9318e-35
5.4972e-07 1.9166e-34
5.5017e-07 3.024e-34
5.5063e-07 2.0393e-34
5.5109e-07 3.1247e-35
5.5155e-07 1.5531e-36
5.5201e-07 5.2144e-38
5.5247e-07 3.0557e-38
5.5293e-07 2.1325e-38
5.5339e-07 1.6739e-38
5.5386e-07 1.4426e-38
5.5432e-07 1.343e-38
5.5478e-07 1.4352e-38
5.5524e-07 1.7112e-38
5.5571e-07 2.4057e-38
5.5617e-07 4.5491e-38
5.5663e-07 1.3576e-35
5.571e-07 8.9507e-35
5.5756e-07 1.5418e-34
5.5803e-07 1.2121e-34
5.5849e-07 3.5447e-35
5.5896e-07 5.9597e-36
5.5943e-07 3.1737e-38
5.5989e-07 2.0296e-38
5.6036e-07 1.5804e-38
5.6083e-07 1.4262e-38
5.613e-07 1.4969e-38
5.6176e-07 1.7012e-38
5.6223e-07 2.1773e-38
5.627e-07 3.2228e-38
5.6317e-07 6.2043e-38
5.6364e-07 9.8485e-36
5.6411e-07 1.0285e-34
5.6458e-07 2.0668e-34
5.6505e-07 2.2218e-34
5.6552e-07 9.5627e-35
5.66e-07 5.4385e-35
5.6647e-07 1.9082e-35
5.6694e-07 2.1032e-36
5.6741e-07 2.7631e-38
5.6789e-07 1.6719e-38
5.6836e-07 1.1274e-38
5.6883e-07 8.4608e-39
5.6931e-07 6.5434e-39
5.6978e-07 5.7088e-39
5.7026e-07 4.3033e-39
5.7074e-07 3.2569e-39
5.7121e-07 2.0198e-39
5.7169e-07 1.225e-39
5.7216e-07 2.0788e-39
5.7264e-07 3.0158e-39
5.7312e-07 3.7133e-39
5.736e-07 4.6017e-39
5.7408e-07 5.6758e-39
5.7456e-07 7.1993e-39
5.7503e-07 9.2451e-39
5.7551e-07 1.2542e-38
5.7599e-07 2.029e-38
5.7647e-07 3.3244e-38
5.7696e-07 5.9956e-38
5.7744e-07 1.3427e-35
5.7792e-07 6.4819e-35
5.784e-07 1.9965e-34
5.7888e-07 2.3951e-34
5.7937e-07 1.2079e-34
5.7985e-07 3.5267e-35
5.8033e-07 2.5239e-37
5.8082e-07 1.3811e-37
5.813e-07 2.2838e-37
5.8179e-07 5.7282e-35
5.8227e-07 3.5315e-34
5.8276e-07 6.6088e-34
5.8324e-07 4.3536e-34
5.8373e-07 3.063e-34
5.8422e-07 1.9742e-34
5.8471e-07 5.9235e-35
5.8519e-07 6.5304e-35
5.8568e-07 9.4413e-35
5.8617e-07 2.0488e-34
5.8666e-07 2.1459e-34
5.8715e-07 1.6543e-34
5.8764e-07 2.8141e-34
5.8813e-07 3.7884e-34
5.8862e-07 2.918e-34
5.8911e-07 7.2762e-35
5.896e-07 4.8632e-36
5.9009e-07 8.3961e-38
5.9059e-07 4.9003e-38
5.9108e-07 3.4265e-38
5.9157e-07 2.6666e-38
5.9206e-07 2.2229e-38
5.9256e-07 2.1088e-38
5.9305e-07 2.0135e-38
5.9355e-07 2.0645e-38
5.9404e-07 2.4603e-38
5.9454e-07 3.1367e-38
5.9503e-07 4.7827e-38
5.9553e-07 3.3804e-37
5.9603e-07 1.6566e-35
5.9652e-07 1.5878e-34
5.9702e-07 3.1214e-34
5.9752e-07 2.4376e-34
5.9802e-07 8.5502e-35
5.9852e-07 3.9522e-35
5.9902e-07 3.998e-35
5.9952e-07 2.7311e-35
6.0002e-07 1.6837e-35
6.0052e-07 6.6792e-37
6.0102e-07 5.7919e-38
6.0152e-07 6.4235e-38
6.0202e-07 8.4781e-38
6.0252e-07 1.239e-37
6.0303e-07 2.085e-37
6.0353e-07 6.0223e-37
6.0403e-07 2.1386e-34
6.0454e-07 6.4998e-34
6.0504e-07 7.6988e-34
6.0555e-07 6.4314e-34
6.0605e-07 4.2962e-34
6.0656e-07 1.4919e-34
6.0706e-07 2.7557e-35
6.0757e-07 3.9606e-36
6.0808e-07 8.5249e-37
6.0858e-07 3.6815e-34
6.0909e-07 9.9363e-34
6.096e-07 1.0302e-33
6.1011e-07 7.4284e-34
6.1062e-07 4.8717e-34
6.1113e-07 2.5987e-34
6.1164e-07 1.4291e-34
6.1215e-07 6.5116e-35
6.1266e-07 1.173e-34
6.1317e-07 1.8792e-34
6.1368e-07 1.1934e-34
6.1419e-07 1.2856e-34
6.147e-07 1.5099e-34
6.1522e-07 1.2978e-34
6.1573e-07 9.2903e-35
6.1624e-07 4.78e-35
6.1676e-07 9.9506e-36
6.1727e-07 7.9463e-38
6.1779e-07 4.5573e-38
6.183e-07 4.1983e-38
6.1882e-07 5.4509e-38
6.1933e-07 2.748e-36
6.1985e-07 4.2109e-35
6.2037e-07 1.5691e-34
6.2089e-07 1.8533e-34
6.214e-07 1.0038e-34
6.2192e-07 1.6932e-35
6.2244e-07 1.3711e-37
6.2296e-07 7.8467e-38
6.2348e-07 7.8122e-38
6.24e-07 8.9768e-38
6.2452e-07 1.1086e-37
6.2504e-07 1.4798e-37
6.2556e-07 2.1348e-37
6.2609e-07 3.5425e-37
6.2661e-07 8.3075e-37
6.2713e-07 3.0903e-34
6.2765e-07 1.0578e-33
6.2818e-07 1.5109e-33
6.287e-07 1.1474e-33
6.2923e-07 6.9564e-34
6.2975e-07 4.1498e-34
6.3028e-07 1.9988e-34
6.308e-07 1.1178e-34
6.3133e-07 2.2557e-34
6.3185e-07 3.0459e-34
6.3238e-07 2.3951e-34
6.3291e-07 9.4494e-35
6.3344e-07 1.6082e-35
6.3397e-07 1.242e-37
6.3449e-07 8.0561e-38
6.3502e-07 6.1526e-38
6.3555e-07 4.8316e-38
6.3608e-07 3.5693e-38
6.3661e-07 2.6581e-38
6.3715e-07 2.1168e-38
6.3768e-07 1.9484e-38
6.3821e-07 1.9413e-38
6.3874e-07 2.1884e-38
6.3927e-07 2.7485e-38
6.3981e-07 3.7197e-38
6.4034e-07 5.9578e-38
6.4088e-07 4.8409e-37
6.4141e-07 3.8404e-35
6.4195e-07 1.8723e-34
6.4248e-07 3.7159e-34
6.4302e-07 3.3113e-34
6.4355e-07 1.2194e-34
6.4409e-07 1.6883e-35
6.4463e-07 1.7699e-37
6.4516e-07 1.2093e-37
6.457e-07 1.2023e-37
6.4624e-07 1.3686e-37
6.4678e-07 1.7813e-37
6.4732e-07 2.6626e-37
6.4786e-07 4.235e-37
6.484e-07 7.1722e-37
6.4894e-07 1.8586e-36
6.4948e-07 7.5973e-34
6.5003e-07 2.0181e-33
6.5057e-07 2.118e-33
6.5111e-07 1.5937e-33
6.5165e-07 1.2916e-33
6.522e-07 9.5605e-34
6.5274e-07 6.4652e-34
6.5329e-07 3.0345e-34
6.5383e-07 8.3708e-35
6.5438e-07 1.6499e-35
6.5492e-07 1.3869e-33
6.5547e-07 6.9138e-33
6.5601e-07 1.1746e-32
6.5656e-07 9.1596e-33
6.5711e-07 6.1582e-33
6.5766e-07 4.6645e-33
6.5821e-07 2.6552e-33
6.5876e-07 1.3e-33
6.5931e-07 6.4866e-34
6.5986e-07 3.3905e-34
6.6041e-07 2.3251e-33
6.6096e-07 5.4565e-33
6.6151e-07 4.4418e-33
6.6206e-07 2.7977e-33
6.6261e-07 2.2245e-33
6.6317e-07 1.1789e-33
6.6372e-07 6.3788e-34
6.6427e-07 4.744e-34
6.6483e-07 3.8145e-34
6.6538e-07 2.6381e-34
6.6594e-07 1.866e-34
6.6649e-07 8.9889e-35
6.6705e-07 3.6387e-35
6.676e-07 1.486e-34
6.6816e-07 2.6169e-34
6.6872e-07 1.8711e-34
6.6928e-07 1.7384e-34
6.6983e-07 2.2155e-34
6.7039e-07 2.3296e-34
6.7095e-07 1.5016e-34
6.7151e-07 3.4654e-35
6.7207e-07 7.1365e-36
6.7263e-07 7.002e-38
6.7319e-07 4.4136e-38
6.7376e-07 3.149e-38
6.7432e-07 2.4334e-38
6.7488e-07 1.9542e-38
6.7544e-07 1.6623e-38
6.7601e-07 1.4937e-38
6.7657e-07 1.389e-38
6.7714e-07 1.3255e-38
6.777e-07 1.3378e-38
6.7827e-07 1.4388e-38
6.7883e-07 1.6956e-38
6.794e-07 2.1322e-38
6.7996e-07 3.0489e-38
6.8053e-07 5.2696e-38
6.811e-07 9.3944e-36
6.8167e-07 3.4935e-35
6.8224e-07 1.5718e-34
6.8281e-07 2.9465e-34
6.8338e-07 1.9962e-34
6.8395e-07 9.1924e-35
6.8452e-07 1.4373e-35
6.8509e-07 6.3822e-38
6.8566e-07 3.3515e-38
6.8623e-07 2.3527e-38
6.868e-07 1.7753e-38
6.8738e-07 1.0394e-38
6.8795e-07 1.1043e-38
6.8852e-07 1.1542e-38
6.891e-07 1.2223e-38
6.8967e-07 1.2401e-38
6.9025e-07 1.035e-38
6.9082e-07 1.7518e-38
6.914e-07 1.9979e-38
6.9198e-07 2.6413e-38
6.9255e-07 3.7543e-38
6.9313e-07 6.8344e-38
6.9371e-07 4.9715e-37
6.9429e-07 4.0026e-35
6.9487e-07 1.7843e-34
6.9545e-07 4.3496e-34
6.9603e-07 4.7474e-34
6.9661e-07 2.4937e-34
6.9719e-07 3.7807e-35
6.9777e-07 1.182e-36
6.9835e-07 8.2571e-38
6.9894e-07 5.4454e-38
6.9952e-07 4.1169e-38
7.001e-07 4.9731e-38
7.0069e-07 9.7627e-38
7.0127e-07 1.6217e-37
7.0186e-07 2.2536e-37
7.0244e-07 2.8529e-37
7.0303e-07 3.4019e-37
7.0361e-07 4.0185e-37
7.042e-07 4.9091e-37
7.0479e-07 6.0074e-37
7.0538e-07 8.0576e-37
7.0596e-07 3.4034e-36
7.0655e-07 5.8194e-35
7.0714e-07 2.9573e-34
7.0773e-07 5.3506e-34
7.0832e-07 4.3458e-34
7.0891e-07 1.7958e-34
7.0951e-07 2.1805e-33
7.101e-07 1.127e-32
7.1069e-07 1.8447e-32
7.1128e-07 1.4839e-32
7.1188e-07 1.1098e-32
7.1247e-07 8.1828e-33
7.1306e-07 4.4714e-33
7.1366e-07 2.3624e-33
7.1425e-07 1.014e-33
7.1485e-07 5.9704e-34
7.1545e-07 2.5834e-32
7.1604e-07 5.4322e-32
7.1664e-07 5.2041e-32
7.1724e-07 3.4694e-32
7.1784e-07 2.9128e-32
7.1844e-07 1.6907e-32
7.1904e-07 1.0453e-32
7.1964e-07 6.9218e-33
7.2024e-07 4.2925e-33
7.2084e-07 2.9444e-33
7.2144e-07 1.9042e-33
7.2204e-07 4.8346e-33
7.2264e-07 1.0235e-32
7.2324e-07 1.1826e-32
7.2385e-07 8.6931e-33
7.2445e-07 6.7264e-33
7.2506e-07 4.5942e-33
7.2566e-07 2.7053e-33
7.2627e-07 1.0721e-33
7.2687e-07 8.8574e-34
7.2748e-07 1.5236e-33
7.2809e-07 1.7504e-33
7.2869e-07 1.5396e-33
7.293e-07 1.45e-33
7.2991e-07 1.0191e-33
7.3052e-07 5.0526e-34
7.3113e-07 1.5192e-34
7.3174e-07 3.7623e-35
7.3235e-07 3.5412e-36
7.3296e-07 2.3213e-34
7.3357e-07 4.966e-34
7.3418e-07 4.1117e-34
7.348e-07 2.6364e-34
7.3541e-07 2.1993e-34
7.3602e-07 1.2502e-34
7.3664e-07 3.9297e-35
7.3725e-07 7.1997e-36
7.3787e-07 1.9041e-37
7.3848e-07 3.315e-35
7.391e-07 1.3063e-34
7.3971e-07 2.2854e-34
7.4033e-07 2.2514e-34
7.4095e-07 8.3191e-35
7.4157e-07 1.4553e-35
7.4218e-07 7.7396e-38
7.428e-07 3.9441e-38
7.4342e-07 2.6635e-38
7.4404e-07 1.861e-38
7.4466e-07 1.3796e-38
7.4529e-07 9.9097e-39
7.4591e-07 7.5446e-39
7.4653e-07 6.1391e-39
7.4715e-07 5.8198e-39
7.4778e-07 6.4879e-39
7.484e-07 6.8887e-39
7.4902e-07 7.0813e-39
7.4965e-07 7.6886e-39
7.5027e-07 7.8483e-39
7.509e-07 7.9767e-39
7.5153e-07 8.6811e-39
7.5215e-07 9.9426e-39
7.5278e-07 1.2422e-38
7.5341e-07 1.5431e-38
7.5404e-07 2.0283e-38
7.5467e-07 2.7799e-38
7.553e-07 4.1153e-38
7.5593e-07 7.1151e-38
7.5656e-07 1.6582e-35
7.5719e-07 4.2261e-35
7.5782e-07 1.5314e-34
7.5845e-07 3.3235e-34
7.5908e-07 3.0661e-34
7.5972e-07 2.4928e-34
7.6035e-07 5.0461e-35
7.6099e-07 1.0401e-37
7.6162e-07 4.5061e-38
7.6226e-07 3.3265e-38
7.6289e-07 2.5278e-38
7.6353e-07 2.3075e-38
7.6417e-07 1.7617e-38
7.648e-07 1.4652e-38
7.6544e-07 1.6745e-38
7.6608e-07 1.3351e-38
7.6672e-07 1.5544e-38
7.6736e-07 1.8228e-38
7.68e-07 2.0994e-38
7.6864e-07 2.3429e-38
7.6928e-07 7.7093e-38
7.6992e-07 4.9367e-37
7.7056e-07 1.3829e-36
7.7121e-07 3.8194e-36
7.7185e-07 4.3298e-35
7.7249e-07 1.9122e-34
7.7314e-07 4.1214e-34
7.7378e-07 4.2783e-34
7.7443e-07 2.2918e-34
7.7508e-07 7.7137e-35
7.7572e-07 2.4453e-35
7.7637e-07 1.3162e-35
7.7702e-07 1.6773e-35
7.7766e-07 2.1713e-35
7.7831e-07 2.8859e-35
7.7896e-07 4.0181e-35
7.7961e-07 6.0879e-35
7.8026e-07 1.0844e-34
7.8091e-07 4.0835e-34
7.8157e-07 1.2993e-31
7.8222e-07 3.04e-31
7.8287e-07 2.8078e-31
7.8352e-07 1.8832e-31
7.8418e-07 1.7669e-31
7.8483e-07 1.4099e-31
7.8549e-07 8.8706e-32
7.8614e-07 4.8499e-32
7.868e-07 3.0436e-32
7.8745e-07 4.5565e-32
7.8811e-07 1.2366e-31
7.8877e-07 1.8801e-31
7.8943e-07 1.4807e-31
7.9008e-07 1.0533e-31
7.9074e-07 8.6755e-32
7.914e-07 5.5789e-32
7.9206e-07 2.97e-32
7.9272e-07 1.8665e-32
7.9339e-07 1.9613e-32
7.9405e-07 2.0354e-32
7.9471e-07 1.8604e-32
7.9537e-07 1.6659e-32
7.9604e-07 1.3686e-32
7.967e-07 9.5552e-33
7.9736e-07 6.1104e-33
7.9803e-07 3.8398e-33
7.987e-07 2.9655e-33
7.9936e-07 2.4662e-33
8.0003e-07 2.1353e-33
8.007e-07 1.2727e-33
8.0136e-07 1.7034e-33
8.0203e-07 6.5083e-33
8.027e-07 1.0019e-32
8.0337e-07 7.2101e-33
8.0404e-07 4.7741e-33
8.0471e-07 4.3213e-33
8.0538e-07 3.0043e-33
8.0606e-07 1.6385e-33
8.0673e-07 1.0333e-33
8.074e-07 6.3934e-34
8.0807e-07 4.3057e-34
8.0875e-07 9.6072e-34
8.0942e-07 2.0523e-33
8.101e-07 2.3227e-33
8.1077e-07 1.8383e-33
8.1145e-07 1.8336e-33
8.1213e-07 1.8254e-33
8.1281e-07 1.2804e-33
8.1348e-07 5.5245e-34
8.1416e-07 2.3289e-34
8.1484e-07 2.1703e-35
8.1552e-07 6.4118e-37
8.162e-07 6.4053e-37
8.1688e-07 7.5104e-37
8.1756e-07 1.0322e-36
8.1825e-07 1.8308e-36
8.1893e-07 5.5249e-34
8.1961e-07 3.2426e-33
8.203e-07 5.8117e-33
8.2098e-07 4.596e-33
8.2166e-07 3.3529e-33
8.2235e-07 3.5103e-33
8.2304e-07 2.1382e-33
8.2372e-07 1.2896e-33
8.2441e-07 9.9396e-34
8.251e-07 3.2636e-34
8.2579e-07 4.9122e-34
8.2647e-07 4.8926e-34
8.2716e-07 1.9343e-34
8.2785e-07 1.1753e-33
8.2854e-07 9.213e-33
8.2924e-07 1.67e-32
8.2993e-07 1.4259e-32
8.3062e-07 1.1226e-32
8.3131e-07 1.0165e-32
8.3201e-07 7.5057e-33
8.327e-07 4.0264e-33
8.334e-07 2.5338e-33
8.3409e-07 1.8171e-33
8.3479e-07 8.1727e-34
8.3548e-07 1.2902e-34
8.3618e-07 2.1282e-36
8.3688e-07 3.7994e-36
8.3758e-07 1.6085e-33
8.3827e-07 4.7035e-33
8.3897e-07 5.1686e-33
8.3967e-07 3.6272e-33
8.4037e-07 3.22e-33
8.4107e-07 2.8762e-33
8.4178e-07 1.8173e-33
8.4248e-07 9.2391e-34
8.4318e-07 2.1976e-34
8.4388e-07 9.6579e-35
8.4459e-07 1.6633e-36
8.4529e-07 3.9591e-37
8.46e-07 2.9291e-37
8.467e-07 2.379e-37
8.4741e-07 2.0799e-37
8.4812e-07 1.9841e-37
8.4883e-07 2.1692e-37
8.4953e-07 2.9351e-37
8.5024e-07 1.5045e-35
8.5095e-07 2.3766e-34
8.5166e-07 5.901e-34
8.5237e-07 6.8318e-34
8.5308e-07 1.0753e-33
8.5379e-07 6.9818e-34
8.5451e-07 2.3892e-34
8.5522e-07 7.8325e-35
8.5593e-07 1.9192e-35
8.5665e-07 2.4401e-35
8.5736e-07 2.9315e-35
8.5808e-07 3.3976e-35
8.5879e-07 3.9039e-35
8.5951e-07 4.484e-35
8.6023e-07 4.7124e-35
8.6094e-07 4.584e-35
8.6166e-07 4.5627e-35
8.6238e-07 7.7904e-35
8.631e-07 1.8191e-34
8.6382e-07 2.2751e-34
8.6454e-07 2.115e-34
8.6526e-07 2.4268e-34
8.6598e-07 2.8151e-34
8.6671e-07 3.6442e-34
8.6743e-07 8.5158e-34
8.6815e-07 2.6847e-31
8.6888e-07 8.5398e-31
8.696e-07 1.0325e-30
8.7033e-07 7.4982e-31
8.7105e-07 5.9363e-31
8.7178e-07 4.848e-31
8.7251e-07 3.2512e-31
8.7324e-07 2.4579e-31
8.7396e-07 2.4271e-31
8.7469e-07 1.6242e-31
8.7542e-07 1.0234e-31
8.7615e-07 9.072e-32
8.7688e-07 6.273e-32
8.7762e-07 4.6882e-32
8.7835e-07 3.3895e-32
8.7908e-07 2.4138e-32
8.7981e-07 1.5495e-32
8.8055e-07 1.0512e-32
8.8128e-07 7.6233e-33
8.8202e-07 4.4399e-33
8.8275e-07 2.5407e-33
8.8349e-07 1.3617e-33
8.8423e-07 9.9262e-34
8.8496e-07 1.3551e-33
8.857e-07 1.9126e-33
8.8644e-07 1.568e-33
8.8718e-07 8.9889e-34
8.8792e-07 3.9681e-34
8.8866e-07 2.1201e-34
8.894e-07 7.6575e-35
8.9015e-07 2.1389e-35
8.9089e-07 9.0642e-36
8.9163e-07 1.8544e-35
8.9237e-07 8.3731e-33
8.9312e-07 2.8471e-32
8.9386e-07 3.9199e-32
8.9461e-07 2.5405e-32
8.9536e-07 1.7617e-32
8.961e-07 1.7904e-32
8.9685e-07 1.3591e-32
8.976e-07 1.0232e-32
8.9835e-07 8.703e-33
8.991e-07 5.524e-33
8.9985e-07 3.4742e-33
9.006e-07 3.2486e-33
9.0135e-07 2.5329e-33
9.021e-07 1.3885e-33
9.0285e-07 5.0123e-34
9.0361e-07 1.3928e-34
9.0436e-07 1.0376e-35
9.0512e-07 1.0141e-35
9.0587e-07 1.4772e-35
9.0663e-07 6.8382e-35
9.0738e-07 3.2789e-33
9.0814e-07 3.1112e-32
9.089e-07 7.4081e-32
9.0966e-07 8.3202e-32
9.1041e-07 5.0889e-32
9.1117e-07 4.4645e-32
9.1193e-07 4.3767e-32
9.1269e-07 3.1539e-32
9.1346e-07 1.7196e-32
9.1422e-07 6.4862e-33
9.1498e-07 2.6727e-33
9.1574e-07 1.3721e-33
9.1651e-07 1.1427e-33
9.1727e-07 1.3629e-33
9.1804e-07 9.0405e-34
9.188e-07 1.1608e-33
9.1957e-07 6.7342e-33
9.2034e-07 1.858e-31
9.211e-07 4.7801e-31
9.2187e-07 5.0476e-31
9.2264e-07 2.9897e-31
9.2341e-07 3.4011e-31
9.2418e-07 3.1672e-31
9.2495e-07 2.2097e-31
9.2572e-07 1.31e-31
9.265e-07 6.7072e-32
9.2727e-07 3.4821e-32
9.2804e-07 1.9792e-32
9.2882e-07 9.6269e-33
9.2959e-07 4.8109e-33
9.3037e-07 1.4898e-31
9.3114e-07 3.9524e-31
9.3192e-07 4.6803e-31
9.327e-07 3.0953e-31
9.3348e-07 2.9283e-31
9.3426e-07 3.1979e-31
9.3503e-07 2.3625e-31
9.3581e-07 1.6433e-31
9.366e-07 1.2434e-31
9.3738e-07 6.2558e-32
9.3816e-07 3.1211e-32
9.3894e-07 2.2778e-32
9.3972e-07 1.9138e-32
9.4051e-07 1.7216e-32
9.4129e-07 1.2478e-32
9.4208e-07 7.5991e-33
9.4286e-07 5.9535e-33
9.4365e-07 1.083e-32
9.4444e-07 3.5859e-32
9.4523e-07 5.1862e-32
9.4601e-07 3.6303e-32
9.468e-07 2.3338e-32
9.4759e-07 2.151e-32
9.4838e-07 1.7969e-32
9.4918e-07 1.34e-32
9.4997e-07 8.539e-33
9.5076e-07 4.7448e-33
9.5155e-07 6.3383e-33
9.5235e-07 7.258e-33
9.5314e-07 4.8609e-33
9.5394e-07 3.9385e-33
9.5473e-07 4.1023e-33
9.5553e-07 3.4781e-33
9.5633e-07 1.8556e-33
9.5712e-07 5.6991e-34
9.5792e-07 8.746e-35
9.5872e-07 3.2558e-36
9.5952e-07 1.7864e-36
9.6032e-07 1.8626e-36
9.6112e-07 1.097e-34
9.6192e-07 4.8702e-34
9.6273e-07 1.3103e-33
9.6353e-07 2.5055e-33
9.6433e-07 6.0712e-33
9.6514e-07 5.836e-33
9.6594e-07 3.7235e-33
9.6675e-07 4.1465e-33
9.6756e-07 3.9546e-33
9.6836e-07 2.758e-33
9.6917e-07 1.3078e-33
9.6998e-07 8.1367e-34
9.7079e-07 1.1492e-33
9.716e-07 1.5866e-33
9.7241e-07 2.5543e-33
9.7322e-07 2.2113e-33
9.7403e-07 8.9509e-34
9.7484e-07 1.891e-34
9.7566e-07 5.539e-35
9.7647e-07 8.873e-36
9.7729e-07 1.0689e-33
9.781e-07 9.1576e-33
9.7892e-07 2.6057e-32
9.7973e-07 3.5854e-32
9.8055e-07 2.7965e-32
9.8137e-07 2.1909e-32
9.8219e-07 2.313e-32
9.8301e-07 1.9799e-32
9.8383e-07 1.2101e-32
9.8465e-07 6.0368e-33
9.8547e-07 2.8325e-33
9.8629e-07 7.398e-34
9.8711e-07 4.9495e-34
9.8794e-07 1.3608e-33
9.8876e-07 1.7902e-33
9.8959e-07 1.1448e-33
9.9041e-07 8.7015e-34
9.9124e-07 3.3134e-33
9.9207e-07 1.2208e-32
9.9289e-07 2.2544e-32
9.9372e-07 2.1668e-32
9.9455e-07 1.3791e-32
9.9538e-07 1.5489e-32
9.9621e-07 1.5976e-32
9.9704e-07 1.1898e-32
9.9787e-07 7.5645e-33
9.9871e-07 3.7904e-33
9.9954e-07 2.3024e-33
1.0004e-06 1.8397e-33
1.0012e-06 1.3003e-33
1.002e-06 6.405e-34
1.0029e-06 1.2045e-34
1.0037e-06 5.1836e-36
1.0046e-06 2.26e-36
1.0054e-06 2.2769e-36
1.0062e-06 2.4972e-36
1.0071e-06 3.1988e-36
1.0079e-06 1.567e-34
1.0087e-06 9.0867e-34
1.0096e-06 2.184e-33
1.0104e-06 3.2436e-33
1.0113e-06 6.0008e-33
1.0121e-06 1.398e-32
1.013e-06 2.2449e-32
1.0138e-06 2.3623e-32
1.0147e-06 1.9392e-32
1.0155e-06 1.0602e-32
1.0163e-06 4.5623e-33
1.0172e-06 2.8234e-33
1.018e-06 2.5468e-33
1.0189e-06 2.3488e-33
1.0197e-06 1.5667e-33
1.0206e-06 7.4017e-34
1.0214e-06 4.7347e-34
1.0223e-06 4.2366e-34
1.0232e-06 3.2877e-34
1.024e-06 2.4366e-34
1.0249e-06 2.0662e-34
1.0257e-06 2.3484e-34
1.0266e-06 2.749e-34
1.0274e-06 3.4975e-34
1.0283e-06 7.8823e-34
1.0291e-06 1.4901e-33
1.03e-06 1.9031e-33
