2.8e-07 0
2.8019e-07 0
2.8037e-07 0
2.8056e-07 0
2.8075e-07 0
2.8094e-07 0
2.8112e-07 0
2.8131e-07 0
2.815e-07 0
2.8169e-07 0
2.8187e-07 0
2.8206e-07 0
2.8225e-07 0
2.8244e-07 0
2.8263e-07 0
2.8282e-07 0
2.8301e-07 0
2.8319e-07 0
2.8338e-07 0
2.8357e-07 0
2.8376e-07 0
2.8395e-07 0
2.8414e-07 0
2.8433e-07 0
2.8452e-07 0
2.8471e-07 0
2.849e-07 0
2.8509e-07 0
2.8528e-07 0
2.8547e-07 0
2.8566e-07 0
2.8585e-07 0
2.8604e-07 0
2.8623e-07 0
2.8642e-07 0
2.8662e-07 0
2.8681e-07 0
2.87e-07 0
2.8719e-07 0
2.8738e-07 0
2.8757e-07 0
2.8777e-07 0
2.8796e-07 0
2.8815e-07 0
2.8834e-07 0
2.8853e-07 0
2.8873e-07 0
2.8892e-07 0
2.8911e-07 0
2.8931e-07 0
2.895e-07 0
2.8969e-07 0
2.8989e-07 0
2.9008e-07 0
2.9027e-07 0
2.9047e-07 0
2.9066e-07 0
2.9085e-07 0
2.9105e-07 0
2.9124e-07 0
2.9144e-07 0
2.9163e-07 0
2.9183e-07 0
2.9202e-07 0
2.9222e-07 0
2.9241e-07 0
2.9261e-07 0
2.928e-07 0
2.93e-07 0
2.9319e-07 0
2.9339e-07 0
2.9358e-07 0
2.9378e-07 0
2.9398e-07 0
2.9417e-07 0
2.9437e-07 0
2.9456e-07 0
2.9476e-07 0
2.9496e-07 0
2.9515e-07 0
2.9535e-07 0
2.9555e-07 0
2.9575e-07 0
2.9594e-07 0
2.9614e-07 0
2.9634e-07 0
2.9654e-07 0
2.9673e-07 0
2.9693e-07 0
2.9713e-07 0
2.9733e-07 0
2.9753e-07 0
2.9773e-07 0
2.9792e-07 0
2.9812e-07 0
2.9832e-07 0
2.9852e-07 0
2.9872e-07 0
2.9892e-07 0
2.9912e-07 0
2.9932e-07 0
2.9952e-07 0
2.9972e-07 0
2.9992e-07 0
3.0012e-07 0
3.0032e-07 0
3.0052e-07 0
3.0072e-07 0
3.0092e-07 0
3.0112e-07 0
3.0132e-07 0
3.0152e-07 0
3.0173e-07 0
3.0193e-07 0
3.0213e-07 0
3.0233e-07 0
3.0253e-07 0
3.0273e-07 0
3.0294e-07 0
3.0314e-07 0
3.0334e-07 0
3.0354e-07 0
3.0375e-07 0
3.0395e-07 0
3.0415e-07 0
3.0435e-07 0
3.0456e-07 0
3.0476e-07 0
3.0496e-07 0
3.0517e-07 0
3.0537e-07 0
3.0557e-07 0
3.0578e-07 0
3.0598e-07 0
3.0619e-07 0
3.0639e-07 0
3.066e-07 0
3.068e-07 0
3.0701e-07 0
3.0721e-07 0
3.0742e-07 0
3.0762e-07 0
3.0783e-07 0
3.0803e-07 0
3.0824e-07 0
3.0844e-07 0
3.0865e-07 0
3.0885e-07 0
3.0906e-07 0
3.0927e-07 0
3.0947e-07 0
3.0968e-07 0
3.0989e-07 0
3.1009e-07 0
3.103e-07 0
3.1051e-07 0
3.1071e-07 0
3.1092e-07 0
3.1113e-07 0
3.1134e-07 0
3.1155e-07 0
3.1175e-07 0
3.1196e-07 0
3.1217e-07 0
3.1238e-07 0
3.1259e-07 0
3.1279e-07 0
3.13e-07 0
3.1321e-07 0
3.1342e-07 0
3.1363e-07 0
3.1384e-07 0
3.1405e-07 0
3.1426e-07 0
3.1447e-07 0
3.1468e-07 0
3.1489e-07 0
3.151e-07 0
3.1531e-07 0
3.1552e-07 0
3.1573e-07 0
3.1594e-07 0
3.1615e-07 0
3.1636e-07 0
3.1657e-07 0
3.1679e-07 0
3.17e-07 0
3.1721e-07 0
3.1742e-07 0
3.1763e-07 0
3.1784e-07 0
3.1806e-07 0
3.1827e-07 0
3.1848e-07 0
3.1869e-07 0
3.1891e-07 0
3.1912e-07 0
3.1933e-07 0
3.1955e-07 0
3.1976e-07 0
3.1997e-07 0
3.2019e-07 0
3.204e-07 0
3.2061e-07 0
3.2083e-07 0
3.2104e-07 0
3.2126e-07 0
3.2147e-07 0
3.2168e-07 0
3.219e-07 0
3.2211e-07 0
3.2233e-07 0
3.2254e-07 0
3.2276e-07 0
3.2297e-07 0
3.2319e-07 0
3.2341e-07 0
3.2362e-07 0
3.2384e-07 0
3.2405e-07 0
3.2427e-07 0
3.2449e-07 0
3.247e-07 0
3.2492e-07 0
3.2514e-07 0
3.2535e-07 0
3.2557e-07 0
3.2579e-07 0
3.2601e-07 0
3.2622e-07 0
3.2644e-07 0
3.2666e-07 0
3.2688e-07 0
3.271e-07 0
3.2731e-07 0
3.2753e-07 0
3.2775e-07 0
3.2797e-07 0
3.2819e-07 0
3.2841e-07 0
3.2863e-07 0
3.2885e-07 0
3.2907e-07 0
3.2928e-07 0
3.295e-07 0
3.2972e-07 0
3.2994e-07 0
3.3016e-07 0
3.3039e-07 0
3.3061e-07 0
3.3083e-07 0
3.3105e-07 0
3.3127e-07 0
3.3149e-07 0
3.3171e-07 0
3.3193e-07 0
3.3215e-07 0
3.3238e-07 0
3.326e-07 0
3.3282e-07 0
3.3304e-07 0
3.3326e-07 0
3.3349e-07 0
3.3371e-07 0
3.3393e-07 0
3.3415e-07 0
3.3438e-07 0
3.346e-07 0
3.3482e-07 0
3.3505e-07 0
3.3527e-07 0
3.3549e-07 0
3.3572e-07 0
3.3594e-07 0
3.3617e-07 0
3.3639e-07 0
3.3662e-07 0
3.3684e-07 0
3.3706e-07 0
3.3729e-07 0
3.3752e-07 0
3.3774e-07 0
3.3797e-07 0
3.3819e-07 0
3.3842e-07 0
3.3864e-07 0
3.3887e-07 0
3.391e-07 0
3.3932e-07 0
3.3955e-07 0
3.3977e-07 0
3.4e-07 0
3.4023e-07 0
3.4046e-07 0
3.4068e-07 0
3.4091e-07 0
3.4114e-07 0
3.4137e-07 0
3.4159e-07 0
3.4182e-07 0
3.4205e-07 0
3.4228e-07 0
3.4251e-07 0
3.4273e-07 0
3.4296e-07 0
3.4319e-07 0
3.4342e-07 0
3.4365e-07 0
3.4388e-07 0
3.4411e-07 0
3.4434e-07 0
3.4457e-07 0
3.448e-07 0
3.4503e-07 0
3.4526e-07 0
3.4549e-07 0
3.4572e-07 0
3.4595e-07 0
3.4618e-07 0
3.4641e-07 0
3.4664e-07 0
3.4688e-07 0
3.4711e-07 0
3.4734e-07 0
3.4757e-07 0
3.478e-07 0
3.4803e-07 0
3.4827e-07 0
3.485e-07 0
3.4873e-07 0
3.4896e-07 0
3.492e-07 0
3.4943e-07 0
3.4966e-07 0
3.499e-07 0
3.5013e-07 0
3.5036e-07 0
3.506e-07 0
3.5083e-07 0
3.5107e-07 0
3.513e-07 0
3.5154e-07 0
3.5177e-07 0
3.52e-07 0
3.5224e-07 0
3.5247e-07 0
3.5271e-07 0
3.5295e-07 0
3.5318e-07 0
3.5342e-07 0
3.5365e-07 0
3.5389e-07 0
3.5412e-07 0
3.5436e-07 0
3.546e-07 0
3.5483e-07 0
3.5507e-07 0
3.5531e-07 0
3.5555e-07 0
3.5578e-07 0
3.5602e-07 0
3.5626e-07 0
3.565e-07 0
3.5673e-07 0
3.5697e-07 0
3.5721e-07 0
3.5745e-07 0
3.5769e-07 0
3.5793e-07 0
3.5816e-07 0
3.584e-07 0
3.5864e-07 0
3.5888e-07 0
3.5912e-07 0
3.5936e-07 0
3.596e-07 0
3.5984e-07 0
3.6008e-07 0
3.6032e-07 0
3.6056e-07 0
3.608e-07 0
3.6104e-07 0
3.6128e-07 0
3.6153e-07 0
3.6177e-07 0
3.6201e-07 0
3.6225e-07 0
3.6249e-07 0
3.6273e-07 0
3.6298e-07 0
3.6322e-07 0
3.6346e-07 0
3.637e-07 0
3.6395e-07 0
3.6419e-07 0
3.6443e-07 0
3.6468e-07 0
3.6492e-07 0
3.6516e-07 0
3.6541e-07 0
3.6565e-07 0
3.6589e-07 0
3.6614e-07 0
3.6638e-07 0
3.6663e-07 0
3.6687e-07 0
3.6712e-07 0
3.6736e-07 0
3.6761e-07 0
3.6785e-07 0
3.681e-07 0
3.6834e-07 0
3.6859e-07 0
3.6884e-07 0
3.6908e-07 0
3.6933e-07 0
3.6957e-07 0
3.6982e-07 0
3.7007e-07 0
3.7031e-07 0
3.7056e-07 0
3.7081e-07 0
3.7106e-07 0
3.713e-07 0
3.7155e-07 0
3.718e-07 0
3.7205e-07 0
3.723e-07 0
3.7255e-07 0
3.7279e-07 0
3.7304e-07 0
3.7329e-07 0
3.7354e-07 0
3.7379e-07 0
3.7404e-07 0
3.7429e-07 0
3.7454e-07 0
3.7479e-07 0
3.7504e-07 0
3.7529e-07 0
3.7554e-07 0
3.7579e-07 0
3.7604e-07 0
3.7629e-07 0
3.7654e-07 0
3.7679e-07 0
3.7705e-07 0
3.773e-07 0
3.7755e-07 0
3.778e-07 0
3.7805e-07 0
3.7831e-07 0
3.7856e-07 0
3.7881e-07 0
3.7906e-07 0
3.7932e-07 0
3.7957e-07 0
3.7982e-07 0
3.8008e-07 0
3.8033e-07 0
3.8058e-07 0
3.8084e-07 0
3.8109e-07 0
3.8135e-07 0
3.816e-07 0
3.8186e-07 0
3.8211e-07 0
3.8237e-07 0
3.8262e-07 0
3.8288e-07 0
3.8313e-07 0
3.8339e-07 0
3.8364e-07 0
3.839e-07 0
3.8416e-07 0
3.8441e-07 0
3.8467e-07 0
3.8493e-07 0
3.8518e-07 0
3.8544e-07 0
3.857e-07 0
3.8595e-07 0
3.8621e-07 0
3.8647e-07 0
3.8673e-07 0
3.8699e-07 0
3.8724e-07 0
3.875e-07 0
3.8776e-07 0
3.8802e-07 0
3.8828e-07 0
3.8854e-07 0
3.888e-07 0
3.8906e-07 0
3.8932e-07 0
3.8958e-07 0
3.8984e-07 0
3.901e-07 0
3.9036e-07 0
3.9062e-07 0
3.9088e-07 0
3.9114e-07 0
3.914e-07 0
3.9166e-07 0
3.9192e-07 0
3.9218e-07 0
3.9245e-07 0
3.9271e-07 0
3.9297e-07 0
3.9323e-07 0
3.935e-07 0
3.9376e-07 0
3.9402e-07 0
3.9428e-07 0
3.9455e-07 0
3.9481e-07 0
3.9507e-07 0
3.9534e-07 0
3.956e-07 0
3.9587e-07 0
3.9613e-07 0
3.9639e-07 0
3.9666e-07 0
3.9692e-07 0
3.9719e-07 0
3.9745e-07 0
3.9772e-07 0
3.9798e-07 0
3.9825e-07 0
3.9852e-07 0
3.9878e-07 0
3.9905e-07 0
3.9931e-07 0
3.9958e-07 0
3.9985e-07 0
4.0011e-07 0
4.0038e-07 0
4.0065e-07 0
4.0092e-07 0
4.0118e-07 0
4.0145e-07 0
4.0172e-07 0
4.0199e-07 0
4.0226e-07 0
4.0252e-07 0
4.0279e-07 0
4.0306e-07 0
4.0333e-07 0
4.036e-07 0
4.0387e-07 0
4.0414e-07 0
4.0441e-07 0
4.0468e-07 0
4.0495e-07 0
4.0522e-07 0
4.0549e-07 0
4.0576e-07 0
4.0603e-07 0
4.063e-07 0
4.0657e-07 0
4.0684e-07 0
4.0712e-07 0
4.0739e-07 0
4.0766e-07 0
4.0793e-07 0
4.082e-07 0
4.0848e-07 0
4.0875e-07 0
4.0902e-07 0
4.0929e-07 0
4.0957e-07 0
4.0984e-07 0
4.1011e-07 0
4.1039e-07 0
4.1066e-07 0
4.1094e-07 0
4.1121e-07 0
4.1149e-07 0
4.1176e-07 0
4.1203e-07 0
4.1231e-07 0
4.1258e-07 0
4.1286e-07 0
4.1314e-07 0
4.1341e-07 0
4.1369e-07 0
4.1396e-07 0
4.1424e-07 0
4.1452e-07 0
4.1479e-07 0
4.1507e-07 0
4.1535e-07 0
4.1562e-07 0
4.159e-07 0
4.1618e-07 0
4.1646e-07 0
4.1673e-07 0
4.1701e-07 0
4.1729e-07 0
4.1757e-07 0
4.1785e-07 0
4.1813e-07 0
4.1841e-07 0
4.1869e-07 0
4.1897e-07 0
4.1924e-07 0
4.1952e-07 0
4.198e-07 0
4.2008e-07 0
4.2037e-07 0
4.2065e-07 0
4.2093e-07 0
4.2121e-07 0
4.2149e-07 0
4.2177e-07 0
4.2205e-07 0
4.2233e-07 0
4.2262e-07 0
4.229e-07 0
4.2318e-07 0
4.2346e-07 0
4.2374e-07 0
4.2403e-07 0
4.2431e-07 0
4.2459e-07 0
4.2488e-07 0
4.2516e-07 0
4.2544e-07 0
4.2573e-07 0
4.2601e-07 0
4.263e-07 0
4.2658e-07 0
4.2687e-07 0
4.2715e-07 0
4.2744e-07 0
4.2772e-07 0
4.2801e-07 0
4.2829e-07 0
4.2858e-07 0
4.2886e-07 0
4.2915e-07 0
4.2944e-07 0
4.2972e-07 0
4.3001e-07 0
4.303e-07 0
4.3058e-07 0
4.3087e-07 0
4.3116e-07 0
4.3145e-07 0
4.3174e-07 0
4.3202e-07 0
4.3231e-07 0
4.326e-07 0
4.3289e-07 0
4.3318e-07 0
4.3347e-07 0
4.3376e-07 0
4.3405e-07 0
4.3434e-07 0
4.3463e-07 0
4.3492e-07 0
4.3521e-07 0
4.355e-07 0
4.3579e-07 0
4.3608e-07 0
4.3637e-07 0
4.3666e-07 0
4.3695e-07 0
4.3724e-07 0
4.3754e-07 0
4.3783e-07 0
4.3812e-07 0
4.3841e-07 0
4.387e-07 0
4.39e-07 0
4.3929e-07 0
4.3958e-07 0
4.3988e-07 0
4.4017e-07 0
4.4046e-07 0
4.4076e-07 0
4.4105e-07 0
4.4135e-07 0
4.4164e-07 0
4.4194e-07 0
4.4223e-07 0
4.4253e-07 0
4.4282e-07 0
4.4312e-07 0
4.4341e-07 0
4.4371e-07 0
4.44e-07 0
4.443e-07 0
4.446e-07 0
4.4489e-07 0
4.4519e-07 0
4.4549e-07 0
4.4579e-07 0
4.4608e-07 0
4.4638e-07 0
4.4668e-07 0
4.4698e-07 0
4.4728e-07 0
4.4757e-07 0
4.4787e-07 0
4.4817e-07 0
4.4847e-07 0
4.4877e-07 0
4.4907e-07 0
4.4937e-07 0
4.4967e-07 0
4.4997e-07 0
4.5027e-07 0
4.5057e-07 0
4.5087e-07 0
4.5117e-07 0
4.5147e-07 0
4.5177e-07 0
4.5208e-07 0
4.5238e-07 0
4.5268e-07 0
4.5298e-07 0
4.5328e-07 0
4.5359e-07 0
4.5389e-07 0
4.5419e-07 0
4.545e-07 0
4.548e-07 0
4.551e-07 0
4.5541e-07 0
4.5571e-07 0
4.5601e-07 0
4.5632e-07 0
4.5662e-07 0
4.5693e-07 0
4.5723e-07 0
4.5754e-07 0
4.5784e-07 0
4.5815e-07 0
4.5846e-07 0
4.5876e-07 0
4.5907e-07 0
4.5937e-07 0
4.5968e-07 0
4.5999e-07 0
4.6029e-07 0
4.606e-07 0
4.6091e-07 0
4.6122e-07 0
4.6152e-07 0
4.6183e-07 0
4.6214e-07 0
4.6245e-07 0
4.6276e-07 0
4.6307e-07 0
4.6338e-07 0
4.6368e-07 0
4.6399e-07 0
4.643e-07 0
4.6461e-07 0
4.6492e-07 0
4.6523e-07 0
4.6554e-07 0
4.6586e-07 0
4.6617e-07 0
4.6648e-07 0
4.6679e-07 0
4.671e-07 0
4.6741e-07 0
4.6772e-07 0
4.6804e-07 0
4.6835e-07 0
4.6866e-07 0
4.6897e-07 0
4.6929e-07 0
4.696e-07 0
4.6991e-07 0
4.7023e-07 0
4.7054e-07 0
4.7086e-07 0
4.7117e-07 0
4.7148e-07 0
4.718e-07 0
4.7211e-07 0
4.7243e-07 0
4.7274e-07 0
4.7306e-07 0
4.7338e-07 0
4.7369e-07 0
4.7401e-07 0
4.7432e-07 0
4.7464e-07 0
4.7496e-07 0
4.7527e-07 0
4.7559e-07 0
4.7591e-07 0
4.7623e-07 0
4.7654e-07 0
4.7686e-07 0
4.7718e-07 0
4.775e-07 0
4.7782e-07 0
4.7814e-07 0
4.7846e-07 0
4.7878e-07 0
4.7909e-07 0
4.7941e-07 0
4.7973e-07 0
4.8005e-07 0
4.8038e-07 0
4.807e-07 0
4.8102e-07 0
4.8134e-07 0
4.8166e-07 0
4.8198e-07 0
4.823e-07 0
4.8262e-07 0
4.8295e-07 0
4.8327e-07 0
4.8359e-07 0
4.8391e-07 0
4.8424e-07 0
4.8456e-07 0
4.8488e-07 0
4.8521e-07 0
4.8553e-07 0
4.8585e-07 0
4.8618e-07 0
4.865e-07 0
4.8683e-07 0
4.8715e-07 0
4.8748e-07 0
4.878e-07 0
4.8813e-07 0
4.8846e-07 0
4.8878e-07 0
4.8911e-07 0
4.8943e-07 0
4.8976e-07 0
4.9009e-07 0
4.9041e-07 0
4.9074e-07 0
4.9107e-07 0
4.914e-07 0
4.9173e-07 0
4.9205e-07 0
4.9238e-07 0
4.9271e-07 0
4.9304e-07 0
4.9337e-07 0
4.937e-07 0
4.9403e-07 0
4.9436e-07 0
4.9469e-07 0
4.9502e-07 0
4.9535e-07 0
4.9568e-07 0
4.9601e-07 0
4.9634e-07 8.8188e-42
4.9667e-07 7.5328e-43
4.97e-07 1.4873e-40
4.9733e-07 4.7809e-40
4.9767e-07 1.536e-39
4.98e-07 2.6554e-39
4.9833e-07 3.6111e-39
4.9866e-07 4.3183e-39
4.99e-07 5.2811e-39
4.9933e-07 6.3466e-39
4.9966e-07 7.8851e-39
5e-07 1.0002e-38
5.0033e-07 1.3411e-38
5.0066e-07 1.8853e-38
5.01e-07 2.8995e-38
5.0133e-07 7.2537e-38
5.0167e-07 5.3972e-36
5.02e-07 6.1674e-35
5.0234e-07 1.5184e-34
5.0267e-07 2.5808e-34
5.0301e-07 1.6745e-34
5.0334e-07 5.0661e-35
5.0368e-07 1.0306e-35
5.0402e-07 1.418e-36
5.0435e-07 3.8434e-38
5.0469e-07 2.0889e-38
5.0503e-07 1.4422e-38
5.0536e-07 1.074e-38
5.057e-07 8.299e-39
5.0604e-07 6.8172e-39
5.0637e-07 5.4826e-39
5.0671e-07 4.4472e-39
5.0705e-07 3.8485e-39
5.0739e-07 2.8858e-39
5.0773e-07 1.8198e-39
5.0807e-07 9.7476e-40
5.0841e-07 2.0117e-40
5.0875e-07 -4.162e-41
5.0909e-07 2.7436e-41
5.0942e-07 -1.7246e-41
5.0976e-07 0
5.1011e-07 -2.9592e-41
5.1045e-07 -6.1671e-42
5.1079e-07 2.9391e-40
5.1113e-07 6.8652e-40
5.1147e-07 1.7602e-39
5.1181e-07 2.8761e-39
5.1215e-07 3.7739e-39
5.1249e-07 4.6559e-39
5.1284e-07 5.6406e-39
5.1318e-07 6.9499e-39
5.1352e-07 8.5964e-39
5.1386e-07 1.1027e-38
5.1421e-07 1.4493e-38
5.1455e-07 2.028e-38
5.1489e-07 3.0289e-38
5.1524e-07 9.7757e-38
5.1558e-07 6.1279e-36
5.1592e-07 3.26e-35
5.1627e-07 1.9845e-34
5.1661e-07 2.6714e-34
5.1696e-07 2.0217e-34
5.173e-07 1.2468e-34
5.1765e-07 1.5559e-35
5.1799e-07 1.0694e-36
5.1834e-07 1.2594e-37
5.1869e-07 3.1364e-38
5.1903e-07 2.3078e-38
5.1938e-07 1.8714e-38
5.1972e-07 1.6526e-38
5.2007e-07 1.6091e-38
5.2042e-07 1.6874e-38
5.2077e-07 1.9142e-38
5.2111e-07 2.46e-38
5.2146e-07 8.6921e-38
5.2181e-07 8.2791e-37
5.2216e-07 2.4655e-35
5.2251e-07 6.2656e-35
5.2285e-07 1.6317e-34
5.232e-07 1.7799e-34
5.2355e-07 7.2717e-35
5.239e-07 3.3437e-35
5.2425e-07 3.51e-36
5.246e-07 4.085e-38
5.2495e-07 2.0129e-38
5.253e-07 1.3679e-38
5.2565e-07 1.0336e-38
5.26e-07 7.9338e-39
5.2635e-07 6.2077e-39
5.2671e-07 5.0132e-39
5.2706e-07 4.1927e-39
5.2741e-07 3.781e-39
5.2776e-07 3.4368e-39
5.2811e-07 3.6401e-39
5.2847e-07 3.5586e-39
5.2882e-07 3.4304e-39
5.2917e-07 3.4882e-39
5.2953e-07 3.8684e-39
5.2988e-07 4.6727e-39
5.3023e-07 5.5934e-39
5.3059e-07 7.3115e-39
5.3094e-07 9.3289e-39
5.3129e-07 1.2992e-38
5.3165e-07 1.8797e-38
5.32e-07 3.1902e-38
5.3236e-07 4.1005e-37
5.3271e-07 1.3761e-35
5.3307e-07 6.0261e-35
5.3343e-07 1.5155e-34
5.3378e-07 1.9201e-34
5.3414e-07 9.4549e-35
5.3449e-07 2.3095e-35
5.3485e-07 5.3483e-36
5.3521e-07 1.5019e-37
5.3557e-07 2.2206e-38
5.3592e-07 1.5289e-38
5.3628e-07 1.2343e-38
5.3664e-07 1.1165e-38
5.37e-07 1.0491e-38
5.3736e-07 1.025e-38
5.3771e-07 1.066e-38
5.3807e-07 1.1424e-38
5.3843e-07 1.2452e-38
5.3879e-07 1.4042e-38
5.3915e-07 1.6513e-38
5.3951e-07 2.0274e-38
5.3987e-07 2.6984e-38
5.4023e-07 4.0821e-38
5.4059e-07 1.7214e-37
5.4095e-07 1.1401e-35
5.4131e-07 6.911e-35
5.4167e-07 1.666e-34
5.4204e-07 2.5894e-34
5.424e-07 2.1532e-34
5.4276e-07 1.2275e-34
5.4312e-07 7.8772e-35
5.4349e-07 6.2847e-35
5.4385e-07 4.4469e-35
5.4421e-07 3.9408e-35
5.4457e-07 8.7568e-36
5.4494e-07 8.5062e-37
5.453e-07 3.4934e-37
5.4567e-07 1.1412e-35
5.4603e-07 7.6221e-35
5.4639e-07 1.3327e-34
5.4676e-07 1.0369e-34
5.4712e-07 6.6301e-35
5.4749e-07 4.7805e-35
5.4785e-07 1.6836e-35
5.4822e-07 9.522e-36
5.4859e-07 1.0636e-36
5.4895e-07 1.4319e-35
5.4932e-07 7.1837e-35
5.4968e-07 1.6615e-34
5.5005e-07 2.762e-34
5.5042e-07 2.7284e-34
5.5079e-07 1.2922e-34
5.5115e-07 4.9903e-35
5.5152e-07 1.1729e-35
5.5189e-07 9.6284e-38
5.5226e-07 4.2475e-38
5.5263e-07 2.9815e-38
5.53e-07 2.2854e-38
5.5336e-07 1.8674e-38
5.5373e-07 1.6279e-38
5.541e-07 1.5253e-38
5.5447e-07 1.5177e-38
5.5484e-07 1.6089e-38
5.5521e-07 1.8696e-38
5.5558e-07 2.3676e-38
5.5596e-07 3.8684e-38
5.5633e-07 1.1578e-36
5.567e-07 2.5081e-35
5.5707e-07 6.7781e-35
5.5744e-07 1.5233e-34
5.5781e-07 1.4936e-34
5.5819e-07 6.8617e-35
5.5856e-07 2.1091e-35
5.5893e-07 4.6024e-36
5.593e-07 2.0133e-37
5.5968e-07 2.6466e-38
5.6005e-07 1.9995e-38
5.6042e-07 1.7039e-38
5.608e-07 1.6076e-38
5.6117e-07 1.5948e-38
5.6155e-07 1.7272e-38
5.6192e-07 2.0089e-38
5.623e-07 2.5278e-38
5.6267e-07 3.4663e-38
5.6305e-07 8.6449e-38
5.6342e-07 4.6656e-36
5.638e-07 3.6795e-35
5.6418e-07 1.1528e-34
5.6455e-07 1.8537e-34
5.6493e-07 2.0985e-34
5.6531e-07 1.394e-34
5.6568e-07 8.5504e-35
5.6606e-07 5.6279e-35
5.6644e-07 2.4967e-35
5.6682e-07 6.2055e-36
5.672e-07 6.8872e-38
5.6757e-07 2.528e-38
5.6795e-07 1.7431e-38
5.6833e-07 1.2937e-38
5.6871e-07 9.9894e-39
5.6909e-07 8.1334e-39
5.6947e-07 6.8261e-39
5.6985e-07 5.7036e-39
5.7023e-07 4.9375e-39
5.7061e-07 4.104e-39
5.7099e-07 2.9915e-39
5.7137e-07 2.0248e-39
5.7176e-07 1.6357e-39
5.7214e-07 2.269e-39
5.7252e-07 2.9937e-39
5.729e-07 3.8162e-39
5.7328e-07 4.5099e-39
5.7367e-07 5.0982e-39
5.7405e-07 6.2177e-39
5.7443e-07 7.1292e-39
5.7482e-07 8.7179e-39
5.752e-07 1.093e-38
5.7558e-07 1.492e-38
5.7597e-07 2.164e-38
5.7635e-07 3.2142e-38
5.7674e-07 5.014e-38
5.7712e-07 1.8925e-36
5.7751e-07 3.7933e-36
5.7789e-07 5.6236e-35
5.7828e-07 1.7563e-34
5.7866e-07 2.8828e-34
5.7905e-07 2.0165e-34
5.7944e-07 7.3105e-35
5.7982e-07 2.5089e-35
5.8021e-07 1.1183e-36
5.806e-07 1.589e-37
5.8098e-07 1.7281e-37
5.8137e-07 5.9524e-37
5.8176e-07 3.3946e-35
5.8215e-07 1.687e-34
5.8254e-07 6.9552e-34
5.8293e-07 7.3373e-34
5.8331e-07 4.5062e-34
5.837e-07 3.4281e-34
5.8409e-07 2.1963e-34
5.8448e-07 1.3001e-34
5.8487e-07 8.7633e-35
5.8526e-07 3.5668e-35
5.8565e-07 8.2042e-35
5.8605e-07 1.6651e-34
5.8644e-07 2.1452e-34
5.8683e-07 1.8152e-34
5.8722e-07 1.3841e-34
5.8761e-07 2.0138e-34
5.88e-07 3.5605e-34
5.884e-07 3.7403e-34
5.8879e-07 1.7777e-34
5.8918e-07 7.5118e-35
5.8958e-07 1.1101e-35
5.8997e-07 5.4706e-37
5.9036e-07 6.7394e-38
5.9076e-07 4.7145e-38
5.9115e-07 3.6213e-38
5.9155e-07 3.0192e-38
5.9194e-07 2.6434e-38
5.9234e-07 2.4605e-38
5.9273e-07 2.2485e-38
5.9313e-07 2.1643e-38
5.9352e-07 2.2664e-38
5.9392e-07 2.5114e-38
5.9431e-07 3.0466e-38
5.9471e-07 3.9787e-38
5.9511e-07 6.279e-38
5.9551e-07 1.2968e-36
5.959e-07 1.4921e-35
5.963e-07 6.1028e-35
5.967e-07 2.1262e-34
5.971e-07 3.1289e-34
5.975e-07 2.9381e-34
5.9789e-07 1.1909e-34
5.9829e-07 4.7296e-35
5.9869e-07 4.4013e-35
5.9909e-07 3.4026e-35
5.9949e-07 3.6769e-35
5.9989e-07 2.0832e-35
6.0029e-07 1.0827e-35
6.0069e-07 2.853e-37
6.0109e-07 2.2785e-37
6.015e-07 7.0568e-38
6.019e-07 8.6807e-38
6.023e-07 1.147e-37
6.027e-07 1.6148e-37
6.031e-07 2.6132e-37
6.0351e-07 8.7824e-36
6.0391e-07 1.4659e-34
6.0431e-07 4.3954e-34
6.0471e-07 7.1994e-34
6.0512e-07 7.2262e-34
6.0552e-07 6.843e-34
6.0593e-07 4.6684e-34
6.0633e-07 3.5e-34
6.0674e-07 1.5169e-34
6.0714e-07 2.6269e-35
6.0755e-07 1.7957e-36
6.0795e-07 1.2685e-36
6.0836e-07 1.0813e-34
6.0876e-07 4.2788e-34
6.0917e-07 1.2376e-33
6.0958e-07 1.0595e-33
6.0998e-07 9.6988e-34
6.1039e-07 5.6052e-34
6.108e-07 3.7698e-34
6.112e-07 2.362e-34
6.1161e-07 1.3261e-34
6.1202e-07 6.708e-35
6.1243e-07 6.6645e-35
6.1284e-07 1.5278e-34
6.1325e-07 1.6905e-34
6.1366e-07 9.7328e-35
6.1407e-07 7.5925e-35
6.1448e-07 1.4334e-34
6.1489e-07 1.5759e-34
6.153e-07 1.111e-34
6.1571e-07 1.0315e-34
6.1612e-07 7.3717e-35
6.1653e-07 1.9522e-35
6.1694e-07 4.3252e-36
6.1735e-07 1.4206e-37
6.1776e-07 5.1613e-38
6.1818e-07 4.6527e-38
6.1859e-07 5.1483e-38
6.19e-07 1.2545e-37
6.1942e-07 3.7939e-36
6.1983e-07 5.7609e-35
6.2024e-07 1.061e-34
6.2066e-07 1.8583e-34
6.2107e-07 1.7856e-34
6.2149e-07 6.3299e-35
6.219e-07 2.0736e-35
6.2232e-07 5.349e-37
6.2273e-07 1.459e-37
6.2315e-07 8.5004e-38
6.2356e-07 8.7826e-38
6.2398e-07 9.8363e-38
6.2439e-07 1.1631e-37
6.2481e-07 1.4314e-37
6.2523e-07 1.8461e-37
6.2565e-07 2.5346e-37
6.2606e-07 3.8292e-37
6.2648e-07 1.1941e-36
6.269e-07 6.5438e-35
6.2732e-07 5.1055e-34
6.2774e-07 1.1712e-33
6.2816e-07 1.4958e-33
6.2857e-07 1.2301e-33
6.2899e-07 1.0284e-33
6.2941e-07 5.5432e-34
6.2983e-07 4.2133e-34
6.3025e-07 1.9685e-34
6.3068e-07 1.2997e-34
6.311e-07 2.0167e-34
6.3152e-07 2.6391e-34
6.3194e-07 3.2029e-34
6.3236e-07 2.5815e-34
6.3278e-07 1.2646e-34
6.3321e-07 3.6305e-35
6.3363e-07 9.7798e-36
6.3405e-07 1.4444e-37
6.3447e-07 9.017e-38
6.349e-07 7.2307e-38
6.3532e-07 5.994e-38
6.3575e-07 4.8349e-38
6.3617e-07 3.7622e-38
6.3659e-07 2.9756e-38
6.3702e-07 2.4663e-38
6.3744e-07 2.2019e-38
6.3787e-07 2.0917e-38
6.383e-07 2.178e-38
6.3872e-07 2.3955e-38
6.3915e-07 2.841e-38
6.3957e-07 3.539e-38
6.4e-07 4.7705e-38
6.4043e-07 8.4229e-38
6.4086e-07 5.9574e-36
6.4128e-07 1.917e-35
6.4171e-07 1.0012e-34
6.4214e-07 2.6277e-34
6.4257e-07 4.2423e-34
6.43e-07 3.74e-34
6.4343e-07 1.5646e-34
6.4386e-07 5.8609e-35
6.4429e-07 2.6188e-36
6.4472e-07 2.7329e-37
6.4515e-07 1.3475e-37
6.4558e-07 1.3122e-37
6.4601e-07 1.4138e-37
6.4644e-07 1.6332e-37
6.4687e-07 2.0756e-37
6.473e-07 2.9112e-37
6.4773e-07 4.2427e-37
6.4817e-07 6.1991e-37
6.486e-07 1.2329e-36
6.4903e-07 6.0908e-35
6.4946e-07 7.7614e-34
6.499e-07 1.9323e-33
6.5033e-07 2.2694e-33
6.5077e-07 1.9999e-33
6.512e-07 1.3704e-33
6.5164e-07 1.4941e-33
6.5207e-07 1.2606e-33
6.5251e-07 6.7601e-34
6.5294e-07 4.7912e-34
6.5338e-07 2.246e-34
6.5381e-07 9.3247e-35
6.5425e-07 2.1971e-35
6.5469e-07 2.0923e-34
6.5512e-07 2.3446e-33
6.5556e-07 8.1693e-33
6.56e-07 1.245e-32
6.5644e-07 7.9152e-33
6.5687e-07 8.546e-33
6.5731e-07 5.42e-33
6.5775e-07 4.0529e-33
6.5819e-07 2.8701e-33
6.5863e-07 1.2712e-33
6.5907e-07 7.2133e-34
6.5951e-07 4.3336e-34
6.5995e-07 5.33e-34
6.6039e-07 2.1595e-33
6.6083e-07 4.8711e-33
6.6127e-07 4.8293e-33
6.6171e-07 3.7413e-33
6.6215e-07 3.045e-33
6.626e-07 2.2664e-33
6.6304e-07 1.37e-33
6.6348e-07 7.6173e-34
6.6392e-07 5.9095e-34
6.6437e-07 5.0215e-34
6.6481e-07 4.1487e-34
6.6525e-07 2.5752e-34
6.657e-07 2.119e-34
6.6614e-07 1.3788e-34
6.6659e-07 8.5603e-35
6.6703e-07 3.4064e-35
6.6748e-07 1.2198e-34
6.6792e-07 2.1592e-34
6.6837e-07 2.3217e-34
6.6881e-07 2.0221e-34
6.6926e-07 1.6297e-34
6.6971e-07 2.3477e-34
6.7015e-07 2.5555e-34
6.706e-07 2.6865e-34
6.7105e-07 1.0167e-34
6.715e-07 3.5953e-35
6.7195e-07 3.9461e-36
6.7239e-07 2.2259e-37
6.7284e-07 6.431e-38
6.7329e-07 4.5933e-38
6.7374e-07 3.5286e-38
6.7419e-07 2.8502e-38
6.7464e-07 2.4016e-38
6.7509e-07 2.053e-38
6.7554e-07 1.8262e-38
6.7599e-07 1.7035e-38
6.7644e-07 1.6034e-38
6.769e-07 1.509e-38
6.7735e-07 1.4539e-38
6.778e-07 1.4779e-38
6.7825e-07 1.5873e-38
6.787e-07 1.7793e-38
6.7916e-07 2.1319e-38
6.7961e-07 2.6697e-38
6.8006e-07 3.6651e-38
6.8052e-07 6.217e-38
6.8097e-07 4.1536e-36
6.8143e-07 2.8903e-35
6.8188e-07 8.0103e-35
6.8234e-07 1.7718e-34
6.8279e-07 2.8127e-34
6.8325e-07 2.0946e-34
6.837e-07 9.6022e-35
6.8416e-07 2.8009e-35
6.8462e-07 1.7229e-36
6.8507e-07 2.4255e-37
6.8553e-07 4.2002e-38
6.8599e-07 2.9575e-38
6.8645e-07 2.3224e-38
6.869e-07 2.1236e-38
6.8736e-07 1.5564e-38
6.8782e-07 1.5696e-38
6.8828e-07 1.1287e-38
6.8874e-07 1.4158e-38
6.892e-07 1.2405e-38
6.8966e-07 1.377e-38
6.9012e-07 1.4222e-38
6.9058e-07 1.8005e-38
6.9104e-07 2.0478e-38
6.915e-07 2.4692e-38
6.9196e-07 3.104e-38
6.9243e-07 3.9568e-38
6.9289e-07 5.826e-38
6.9335e-07 1.1939e-37
6.9381e-07 1.767e-35
6.9428e-07 4.64e-35
6.9474e-07 1.3733e-34
6.952e-07 3.5246e-34
6.9567e-07 5.5218e-34
6.9613e-07 4.669e-34
6.966e-07 2.1047e-34
6.9706e-07 7.8067e-35
6.9753e-07 4.8482e-36
6.9799e-07 5.2983e-37
6.9846e-07 8.5466e-38
6.9892e-07 6.0239e-38
6.9939e-07 4.757e-38
6.9986e-07 4.5671e-38
7.0032e-07 6.8237e-38
7.0079e-07 1.2066e-37
7.0126e-07 1.7747e-37
7.0173e-07 2.3267e-37
7.022e-07 2.9019e-37
7.0267e-07 3.4337e-37
7.0313e-07 3.8952e-37
7.036e-07 4.4302e-37
7.0407e-07 5.2443e-37
7.0454e-07 6.1152e-37
7.0501e-07 7.3436e-37
7.0548e-07 1.1239e-36
7.0595e-07 2.6477e-36
7.0643e-07 5.3579e-35
7.069e-07 1.6377e-34
7.0737e-07 3.7061e-34
7.0784e-07 6.1155e-34
7.0831e-07 3.9344e-34
7.0879e-07 2.2544e-34
7.0926e-07 2.8678e-34
7.0973e-07 2.444e-33
7.1021e-07 1.452e-32
7.1068e-07 1.9074e-32
7.1115e-07 1.6547e-32
7.1163e-07 1.3283e-32
7.121e-07 1.066e-32
7.1258e-07 7.744e-33
7.1306e-07 4.9844e-33
7.1353e-07 2.7307e-33
7.1401e-07 1.3926e-33
7.1448e-07 8.5756e-34
7.1496e-07 2.3317e-33
7.1544e-07 2.2339e-32
7.1592e-07 5.9673e-32
7.1639e-07 5.6728e-32
7.1687e-07 3.7108e-32
7.1735e-07 2.852e-32
7.1783e-07 2.1357e-32
7.1831e-07 2.033e-32
7.1879e-07 9.6361e-33
7.1927e-07 8.8826e-33
7.1975e-07 5.3706e-33
7.2023e-07 4.4052e-33
7.2071e-07 3.3338e-33
7.2119e-07 2.4136e-33
7.2167e-07 2.7014e-33
7.2215e-07 5.276e-33
7.2263e-07 1.2864e-32
7.2312e-07 1.2619e-32
7.236e-07 9.4365e-33
7.2408e-07 7.4823e-33
7.2457e-07 7.4447e-33
7.2505e-07 3.3393e-33
7.2553e-07 3.4672e-33
7.2602e-07 1.1575e-33
7.265e-07 7.3459e-34
7.2699e-07 7.5477e-34
7.2747e-07 1.6403e-33
7.2796e-07 1.7632e-33
7.2844e-07 1.6588e-33
7.2893e-07 1.2184e-33
7.2942e-07 1.52e-33
7.299e-07 9.8715e-34
7.3039e-07 5.7959e-34
7.3088e-07 2.5539e-34
7.3137e-07 5.9406e-35
7.3185e-07 5.8213e-36
7.3234e-07 1.8254e-35
7.3283e-07 1.6015e-34
7.3332e-07 3.7976e-34
7.3381e-07 4.4444e-34
7.343e-07 3.4198e-34
7.3479e-07 2.9898e-34
7.3528e-07 2.342e-34
7.3577e-07 1.6898e-34
7.3626e-07 1.0932e-34
7.3675e-07 3.6705e-35
7.3724e-07 1.1583e-35
7.3774e-07 3.2553e-37
7.3823e-07 3.8564e-36
7.3872e-07 4.3418e-35
7.3921e-07 1.4301e-34
7.3971e-07 2.7431e-34
7.402e-07 3.1505e-34
7.407e-07 1.3608e-34
7.4119e-07 3.8282e-35
7.4169e-07 9.788e-36
7.4218e-07 5.7474e-37
7.4268e-07 4.9371e-38
7.4317e-07 3.4047e-38
7.4367e-07 2.5606e-38
7.4416e-07 1.9654e-38
7.4466e-07 1.5018e-38
7.4516e-07 1.1823e-38
7.4565e-07 9.3712e-39
7.4615e-07 7.5715e-39
7.4665e-07 6.5225e-39
7.4715e-07 6.3926e-39
7.4765e-07 6.8245e-39
7.4815e-07 7.4959e-39
7.4865e-07 7.831e-39
7.4915e-07 8.0417e-39
7.4965e-07 8.2108e-39
7.5015e-07 8.5779e-39
7.5065e-07 8.9212e-39
7.5115e-07 9.146e-39
7.5165e-07 9.8506e-39
7.5215e-07 1.1188e-38
7.5265e-07 1.3094e-38
7.5315e-07 1.5529e-38
7.5366e-07 1.9014e-38
7.5416e-07 2.378e-38
7.5466e-07 3.0877e-38
7.5517e-07 4.1742e-38
7.5567e-07 6.2369e-38
7.5618e-07 2.6888e-36
7.5668e-07 5.5105e-36
7.5719e-07 3.9266e-35
7.5769e-07 1.3085e-34
7.582e-07 2.7483e-34
7.587e-07 3.4993e-34
7.5921e-07 2.6571e-34
7.5972e-07 1.7919e-34
7.6022e-07 8.449e-35
7.6073e-07 6.8172e-36
7.6124e-07 2.9199e-37
7.6175e-07 4.7266e-38
7.6225e-07 3.8304e-38
7.6276e-07 3.1457e-38
7.6327e-07 2.5806e-38
7.6378e-07 2.1578e-38
7.6429e-07 2.0218e-38
7.648e-07 1.753e-38
7.6531e-07 1.7471e-38
7.6582e-07 1.8232e-38
7.6633e-07 1.8516e-38
7.6685e-07 1.8859e-38
7.6736e-07 2.0946e-38
7.6787e-07 2.35e-38
7.6838e-07 2.6976e-38
7.689e-07 3.7741e-38
7.6941e-07 1.2903e-37
7.6992e-07 5.1947e-37
7.7044e-07 1.3165e-36
7.7095e-07 2.3499e-36
7.7146e-07 1.2406e-35
7.7198e-07 3.8637e-35
7.7249e-07 1.5448e-34
7.7301e-07 3.8735e-34
7.7353e-07 4.8068e-34
7.7404e-07 3.6237e-34
7.7456e-07 1.8391e-34
7.7508e-07 7.139e-35
7.7559e-07 2.6067e-35
7.7611e-07 1.5825e-35
7.7663e-07 1.607e-35
7.7715e-07 1.9542e-35
7.7767e-07 2.4058e-35
7.7819e-07 3.0112e-35
7.787e-07 3.8714e-35
7.7922e-07 5.1912e-35
7.7974e-07 7.4527e-35
7.8026e-07 1.221e-34
7.8079e-07 1.0814e-33
7.8131e-07 4.3673e-32
7.8183e-07 1.9846e-31
7.8235e-07 3.3296e-31
7.8287e-07 2.7848e-31
7.8339e-07 2.0647e-31
7.8392e-07 1.8566e-31
7.8444e-07 1.6433e-31
7.8496e-07 1.4418e-31
7.8549e-07 7.9888e-32
7.8601e-07 5.2088e-32
7.8654e-07 4.079e-32
7.8706e-07 2.3651e-32
7.8759e-07 4.551e-32
7.8811e-07 1.3064e-31
7.8864e-07 2.0824e-31
7.8917e-07 1.7344e-31
7.8969e-07 1.1701e-31
7.9022e-07 1.0893e-31
7.9075e-07 8.4849e-32
7.9127e-07 6.2355e-32
7.918e-07 3.6298e-32
7.9233e-07 2.4948e-32
7.9286e-07 1.612e-32
7.9339e-07 2.0399e-32
7.9392e-07 2.0356e-32
7.9445e-07 1.7985e-32
7.9498e-07 1.8539e-32
7.9551e-07 1.7438e-32
7.9604e-07 1.2579e-32
7.9657e-07 1.05e-32
7.971e-07 6.3491e-33
7.9764e-07 4.9023e-33
7.9817e-07 3.6979e-33
7.987e-07 2.7837e-33
7.9923e-07 2.3734e-33
7.9977e-07 2.4711e-33
8.003e-07 1.6356e-33
8.0083e-07 8.8011e-34
8.0137e-07 1.3814e-33
8.019e-07 5.1545e-33
8.0244e-07 1.0676e-32
8.0297e-07 9.2922e-33
8.0351e-07 5.1351e-33
8.0405e-07 5.8774e-33
8.0458e-07 4.6027e-33
8.0512e-07 3.4834e-33
8.0566e-07 2.6129e-33
8.062e-07 1.0016e-33
8.0673e-07 9.2512e-34
8.0727e-07 7.0865e-34
8.0781e-07 5.7003e-34
8.0835e-07 4.7205e-34
8.0889e-07 1.1675e-33
8.0943e-07 2.0367e-33
8.0997e-07 2.7894e-33
8.1051e-07 1.8768e-33
8.1105e-07 1.6034e-33
8.1159e-07 1.9604e-33
8.1213e-07 2.3985e-33
8.1268e-07 1.6353e-33
8.1322e-07 8.2702e-34
8.1376e-07 3.5602e-34
8.1431e-07 1.5262e-34
8.1485e-07 4.9144e-35
8.1539e-07 9.6064e-37
8.1594e-07 6.918e-37
8.1648e-07 7.4448e-37
8.1703e-07 8.8626e-37
8.1757e-07 1.1391e-36
8.1812e-07 1.26e-35
8.1866e-07 1.0235e-34
8.1921e-07 1.2519e-33
8.1976e-07 4.0805e-33
8.203e-07 6.0944e-33
8.2085e-07 4.672e-33
8.214e-07 4.7556e-33
8.2195e-07 3.48e-33
8.225e-07 3.9346e-33
8.2304e-07 2.5241e-33
8.2359e-07 1.3633e-33
8.2414e-07 7.9845e-34
8.2469e-07 3.8092e-34
8.2524e-07 2.8453e-34
8.258e-07 4.2952e-34
8.2635e-07 4.5417e-34
8.269e-07 2.4274e-34
8.2745e-07 1.3456e-34
8.28e-07 2.7263e-33
8.2855e-07 7.9395e-33
8.2911e-07 1.5903e-32
8.2966e-07 1.5123e-32
8.3021e-07 1.2302e-32
8.3077e-07 9.4723e-33
8.3132e-07 1.0602e-32
8.3188e-07 9.1352e-33
8.3243e-07 4.6989e-33
8.3299e-07 3.4394e-33
8.3354e-07 2.3988e-33
8.341e-07 1.8392e-33
8.3466e-07 8.5214e-34
8.3522e-07 2.4375e-34
8.3577e-07 8.0172e-36
8.3633e-07 2.5269e-36
8.3689e-07 5.1274e-35
8.3745e-07 1.5355e-33
8.3801e-07 3.5864e-33
8.3857e-07 5.5308e-33
8.3913e-07 5.211e-33
8.3969e-07 3.0193e-33
8.4025e-07 3.0056e-33
8.4081e-07 2.8202e-33
8.4137e-07 3.1344e-33
8.4193e-07 1.3947e-33
8.4249e-07 1.0849e-33
8.4305e-07 4.0298e-34
8.4362e-07 1.066e-34
8.4418e-07 2.231e-35
8.4474e-07 4.6746e-36
8.4531e-07 4.3685e-37
8.4587e-07 3.3484e-37
8.4644e-07 2.8152e-37
8.47e-07 2.4391e-37
8.4757e-07 2.2382e-37
8.4813e-07 2.2191e-37
8.487e-07 2.36e-37
8.4926e-07 3.5686e-37
8.4983e-07 1.2196e-36
8.504e-07 6.8446e-35
8.5097e-07 2.4497e-34
8.5153e-07 6.181e-34
8.521e-07 8.7795e-34
8.5267e-07 1.1631e-33
8.5324e-07 1.1195e-33
8.5381e-07 6.1426e-34
8.5438e-07 2.7719e-34
8.5495e-07 1.1322e-34
8.5552e-07 3.0364e-35
8.5609e-07 2.306e-35
8.5666e-07 2.7153e-35
8.5723e-07 3.1309e-35
8.5781e-07 3.5543e-35
8.5838e-07 3.9729e-35
8.5895e-07 4.4748e-35
8.5952e-07 4.9637e-35
8.601e-07 5.2306e-35
8.6067e-07 5.2041e-35
8.6125e-07 4.9484e-35
8.6182e-07 5.408e-35
8.624e-07 7.9901e-35
8.6297e-07 1.7051e-34
8.6355e-07 2.0082e-34
8.6412e-07 2.2875e-34
8.647e-07 2.2004e-34
8.6528e-07 2.7694e-34
8.6586e-07 2.83e-34
8.6643e-07 3.3407e-34
8.6701e-07 5.479e-34
8.6759e-07 3.3608e-32
8.6817e-07 2.3212e-31
8.6875e-07 7.3744e-31
8.6933e-07 1.118e-30
8.6991e-07 9.2514e-31
8.7049e-07 6.6986e-31
8.7107e-07 5.954e-31
8.7165e-07 5.2101e-31
8.7223e-07 3.3626e-31
8.7282e-07 2.8626e-31
8.734e-07 2.7746e-31
8.7398e-07 2.4607e-31
8.7457e-07 1.6713e-31
8.7515e-07 1.1759e-31
8.7573e-07 9.7569e-32
8.7632e-07 8.1695e-32
8.769e-07 6.7805e-32
8.7749e-07 4.965e-32
8.7807e-07 3.8378e-32
8.7866e-07 3.1592e-32
8.7925e-07 2.0542e-32
8.7983e-07 1.6586e-32
8.8042e-07 1.2904e-32
8.8101e-07 9.588e-33
8.816e-07 6.2615e-33
8.8218e-07 4.0021e-33
8.8277e-07 2.3649e-33
8.8336e-07 1.6986e-33
8.8395e-07 9.8889e-34
8.8454e-07 1.1698e-33
8.8513e-07 1.5742e-33
8.8572e-07 1.9613e-33
8.8631e-07 2.1185e-33
8.8691e-07 1.1046e-33
8.875e-07 5.8717e-34
8.8809e-07 3.9329e-34
8.8868e-07 1.642e-34
8.8928e-07 1.2876e-34
8.8987e-07 4.9155e-35
8.9046e-07 1.1471e-35
8.9106e-07 1.128e-35
8.9165e-07 1.9237e-34
8.9225e-07 4.7172e-33
8.9284e-07 2.0069e-32
8.9344e-07 3.7658e-32
8.9404e-07 3.7219e-32
8.9463e-07 2.1863e-32
8.9523e-07 2.036e-32
8.9583e-07 2.0326e-32
8.9642e-07 1.505e-32
8.9702e-07 9.3516e-33
8.9762e-07 8.5665e-33
8.9822e-07 9.2685e-33
8.9882e-07 8.7075e-33
8.9942e-07 3.833e-33
9.0002e-07 3.6135e-33
9.0062e-07 3.0563e-33
9.0122e-07 2.7921e-33
9.0182e-07 1.6722e-33
9.0243e-07 8.7856e-34
9.0303e-07 3.9694e-34
9.0363e-07 1.0195e-34
9.0423e-07 3.7832e-35
9.0484e-07 1.0193e-35
9.0544e-07 1.3149e-35
9.0605e-07 1.8699e-35
9.0665e-07 1.9956e-34
9.0726e-07 1.6515e-33
9.0786e-07 1.5196e-32
9.0847e-07 4.6737e-32
9.0907e-07 7.9109e-32
9.0968e-07 7.6772e-32
9.1029e-07 5.1996e-32
9.1089e-07 5.3514e-32
9.115e-07 5.002e-32
9.1211e-07 3.7752e-32
9.1272e-07 3.0697e-32
9.1333e-07 1.7006e-32
9.1394e-07 8.627e-33
9.1455e-07 5.1317e-33
9.1516e-07 2.0455e-33
9.1577e-07 1.2232e-33
9.1638e-07 1.1522e-33
9.1699e-07 1.4657e-33
9.176e-07 1.4103e-33
9.1822e-07 7.2926e-34
9.1883e-07 1.0055e-33
9.1944e-07 4.8726e-33
9.2006e-07 7.1699e-32
9.2067e-07 2.9438e-31
9.2129e-07 5.1435e-31
9.219e-07 4.8127e-31
9.2252e-07 3.1218e-31
9.2313e-07 3.3829e-31
9.2375e-07 3.3266e-31
9.2436e-07 3.1962e-31
9.2498e-07 2.1558e-31
9.256e-07 1.1911e-31
9.2622e-07 7.9819e-32
9.2683e-07 3.1661e-32
9.2745e-07 3.6614e-32
9.2807e-07 1.4543e-32
9.2869e-07 2.1446e-32
9.2931e-07 6.5131e-33
9.2993e-07 1.4867e-32
9.3055e-07 1.7544e-31
9.3117e-07 3.1173e-31
9.3179e-07 4.5326e-31
9.3242e-07 3.2083e-31
9.3304e-07 2.9841e-31
9.3366e-07 2.2969e-31
9.3429e-07 2.4937e-31
9.3491e-07 2.8376e-31
9.3553e-07 2.1495e-31
9.3616e-07 1.4111e-31
9.3678e-07 9.8086e-32
9.3741e-07 6.1122e-32
9.3803e-07 3.0379e-32
9.3866e-07 2.5911e-32
9.3929e-07 1.8308e-32
9.3991e-07 1.8418e-32
9.4054e-07 1.7056e-32
9.4117e-07 1.3099e-32
9.418e-07 8.8915e-33
9.4242e-07 6.5671e-33
9.4305e-07 5.041e-33
9.4368e-07 7.068e-33
9.4431e-07 2.7335e-32
9.4494e-07 5.251e-32
9.4557e-07 5.9271e-32
9.462e-07 3.2504e-32
9.4684e-07 1.9276e-32
9.4747e-07 2.0328e-32
9.481e-07 2.3146e-32
9.4873e-07 1.4596e-32
9.4937e-07 1.7767e-32
9.5e-07 8.6985e-33
