2.8e-07 -0
2.8023e-07 -0
2.8047e-07 -0
2.807e-07 -0
2.8094e-07 -0
2.8117e-07 -0
2.814e-07 -0
2.8164e-07 -0
2.8187e-07 -0
2.8211e-07 -0
2.8234e-07 -0
2.8258e-07 -0
2.8282e-07 -0
2.8305e-07 -0
2.8329e-07 -0
2.8352e-07 -0
2.8376e-07 -0
2.84e-07 -0
2.8423e-07 -0
2.8447e-07 -0
2.8471e-07 -0
2.8495e-07 -0
2.8518e-07 -0
2.8542e-07 -0
2.8566e-07 -0
2.859e-07 -0
2.8614e-07 -0
2.8638e-07 -0
2.8661e-07 -0
2.8685e-07 -0
2.8709e-07 -0
2.8733e-07 -0
2.8757e-07 -0
2.8781e-07 -0
2.8805e-07 -0
2.8829e-07 -0
2.8853e-07 -0
2.8877e-07 -0
2.8901e-07 -0
2.8926e-07 -0
2.895e-07 -0
2.8974e-07 -0
2.8998e-07 -0
2.9022e-07 -0
2.9046e-07 -0
2.9071e-07 -0
2.9095e-07 -0
2.9119e-07 -0
2.9143e-07 -0
2.9168e-07 -0
2.9192e-07 -0
2.9216e-07 -0
2.9241e-07 -0
2.9265e-07 -0
2.929e-07 -0
2.9314e-07 -0
2.9339e-07 -0
2.9363e-07 -0
2.9388e-07 -0
2.9412e-07 -0
2.9437e-07 -0
2.9461e-07 -0
2.9486e-07 -0
2.951e-07 -0
2.9535e-07 -0
2.956e-07 -0
2.9584e-07 -0
2.9609e-07 -0
2.9634e-07 -0
2.9658e-07 -0
2.9683e-07 -0
2.9708e-07 -0
2.9733e-07 -0
2.9757e-07 -0
2.9782e-07 -0
2.9807e-07 -0
2.9832e-07 -0
2.9857e-07 -0
2.9882e-07 -0
2.9907e-07 -0
2.9932e-07 -0
2.9957e-07 -0
2.9982e-07 -0
3.0007e-07 -0
3.0032e-07 -0
3.0057e-07 -0
3.0082e-07 -0
3.0107e-07 -0
3.0132e-07 -0
3.0157e-07 -0
3.0182e-07 -0
3.0207e-07 -0
3.0233e-07 -0
3.0258e-07 -0
3.0283e-07 -0
3.0308e-07 -0
3.0334e-07 -0
3.0359e-07 -0
3.0384e-07 -0
3.041e-07 -0
3.0435e-07 -0
3.046e-07 -0
3.0486e-07 -0
3.0511e-07 -0
3.0537e-07 -0
3.0562e-07 -0
3.0588e-07 -0
3.0613e-07 -0
3.0639e-07 -0
3.0664e-07 -0
3.069e-07 -0
3.0715e-07 -0
3.0741e-07 -0
3.0767e-07 -0
3.0792e-07 -0
3.0818e-07 -0
3.0844e-07 -0
3.087e-07 -0
3.0895e-07 -0
3.0921e-07 -0
3.0947e-07 -0
3.0973e-07 -0
3.0998e-07 -0
3.1024e-07 -0
3.105e-07 -0
3.1076e-07 -0
3.1102e-07 -0
3.1128e-07 -0
3.1154e-07 -0
3.118e-07 -0
3.1206e-07 -0
3.1232e-07 -0
3.1258e-07 -0
3.1284e-07 -0
3.131e-07 -0
3.1336e-07 -0
3.1362e-07 -0
3.1389e-07 -0
3.1415e-07 -0
3.1441e-07 -0
3.1467e-07 -0
3.1494e-07 -0
3.152e-07 -0
3.1546e-07 -0
3.1572e-07 -0
3.1599e-07 -0
3.1625e-07 -0
3.1651e-07 -0
3.1678e-07 -0
3.1704e-07 -0
3.1731e-07 -0
3.1757e-07 -0
3.1784e-07 -0
3.181e-07 -0
3.1837e-07 -0
3.1863e-07 -0
3.189e-07 -0
3.1917e-07 -0
3.1943e-07 -0
3.197e-07 -0
3.1996e-07 -0
3.2023e-07 -0
3.205e-07 -0
3.2077e-07 -0
3.2103e-07 -0
3.213e-07 -0
3.2157e-07 -0
3.2184e-07 -0
3.2211e-07 -0
3.2238e-07 -0
3.2264e-07 -0
3.2291e-07 -0
3.2318e-07 -0
3.2345e-07 -0
3.2372e-07 -0
3.2399e-07 -0
3.2426e-07 -0
3.2453e-07 -0
3.248e-07 -0
3.2507e-07 -0
3.2535e-07 -0
3.2562e-07 -0
3.2589e-07 -0
3.2616e-07 -0
3.2643e-07 -0
3.2671e-07 -0
3.2698e-07 -0
3.2725e-07 -0
3.2752e-07 -0
3.278e-07 -0
3.2807e-07 -0
3.2834e-07 -0
3.2862e-07 -0
3.2889e-07 -0
3.2917e-07 -0
3.2944e-07 -0
3.2972e-07 -0
3.2999e-07 -0
3.3027e-07 -0
3.3054e-07 -0
3.3082e-07 -0
3.3109e-07 -0
3.3137e-07 -0
3.3165e-07 -0
3.3192e-07 -0
3.322e-07 -0
3.3248e-07 -0
3.3275e-07 -0
3.3303e-07 -0
3.3331e-07 -0
3.3359e-07 -0
3.3387e-07 -0
3.3414e-07 -0
3.3442e-07 -0
3.347e-07 -0
3.3498e-07 -0
3.3526e-07 -0
3.3554e-07 -0
3.3582e-07 -0
3.361e-07 -0
3.3638e-07 -0
3.3666e-07 -0
3.3694e-07 -0
3.3722e-07 -0
3.375e-07 -0
3.3779e-07 -0
3.3807e-07 -0
3.3835e-07 -0
3.3863e-07 -0
3.3891e-07 -0
3.392e-07 -0
3.3948e-07 -0
3.3976e-07 -0
3.4005e-07 -0
3.4033e-07 -0
3.4061e-07 -0
3.409e-07 -0
3.4118e-07 -0
3.4147e-07 -0
3.4175e-07 -0
3.4204e-07 -0
3.4232e-07 -0
3.4261e-07 -0
3.4289e-07 -0
3.4318e-07 -0
3.4347e-07 -0
3.4375e-07 -0
3.4404e-07 -0
3.4433e-07 -0
3.4461e-07 -0
3.449e-07 -0
3.4519e-07 -0
3.4548e-07 -0
3.4577e-07 -0
3.4605e-07 -0
3.4634e-07 -0
3.4663e-07 -0
3.4692e-07 -0
3.4721e-07 -0
3.475e-07 -0
3.4779e-07 -0
3.4808e-07 -0
3.4837e-07 -0
3.4866e-07 -0
3.4895e-07 -0
3.4924e-07 -0
3.4953e-07 -0
3.4983e-07 -0
3.5012e-07 -0
3.5041e-07 -0
3.507e-07 -0
3.5099e-07 -0
3.5129e-07 -0
3.5158e-07 -0
3.5187e-07 -0
3.5217e-07 -0
3.5246e-07 -0
3.5276e-07 -0
3.5305e-07 -0
3.5334e-07 -0
3.5364e-07 -0
3.5393e-07 -0
3.5423e-07 -0
3.5452e-07 -0
3.5482e-07 -0
3.5512e-07 -0
3.5541e-07 -0
3.5571e-07 -0
3.5601e-07 -0
3.563e-07 -0
3.566e-07 -0
3.569e-07 -0
3.572e-07 -0
3.5749e-07 -0
3.5779e-07 -0
3.5809e-07 -0
3.5839e-07 -0
3.5869e-07 -0
3.5899e-07 -0
3.5929e-07 -0
3.5959e-07 -0
3.5989e-07 -0
3.6019e-07 -0
3.6049e-07 -0
3.6079e-07 -0
3.6109e-07 -0
3.6139e-07 -0
3.6169e-07 -0
3.6199e-07 -0
3.623e-07 -0
3.626e-07 -0
3.629e-07 -0
3.632e-07 -0
3.6351e-07 -0
3.6381e-07 -0
3.6411e-07 -0
3.6442e-07 -0
3.6472e-07 -0
3.6502e-07 -0
3.6533e-07 -0
3.6563e-07 -0
3.6594e-07 -0
3.6624e-07 -0
3.6655e-07 -0
3.6686e-07 -0
3.6716e-07 -0
3.6747e-07 -0
3.6777e-07 -0
3.6808e-07 -0
3.6839e-07 -0
3.687e-07 -0
3.69e-07 -0
3.6931e-07 -0
3.6962e-07 -0
3.6993e-07 -0
3.7024e-07 -0
3.7054e-07 -0
3.7085e-07 -0
3.7116e-07 -0
3.7147e-07 -0
3.7178e-07 -0
3.7209e-07 -0
3.724e-07 -0
3.7271e-07 -0
3.7302e-07 -0
3.7334e-07 -0
3.7365e-07 -0
3.7396e-07 -0
3.7427e-07 -0
3.7458e-07 -0
3.749e-07 -0
3.7521e-07 -0
3.7552e-07 -0
3.7583e-07 -0
3.7615e-07 -0
3.7646e-07 -0
3.7678e-07 -0
3.7709e-07 -0
3.7741e-07 -0
3.7772e-07 -0
3.7804e-07 -0
3.7835e-07 -0
3.7867e-07 -0
3.7898e-07 -0
3.793e-07 -0
3.7961e-07 -0
3.7993e-07 -0
3.8025e-07 -0
3.8057e-07 -0
3.8088e-07 -0
3.812e-07 -0
3.8152e-07 -0
3.8184e-07 -0
3.8216e-07 -0
3.8247e-07 -0
3.8279e-07 -0
3.8311e-07 -0
3.8343e-07 -0
3.8375e-07 -0
3.8407e-07 -0
3.8439e-07 -0
3.8471e-07 -0
3.8503e-07 -0
3.8536e-07 7.5327e-40
3.8568e-07 2.8015e-38
3.86e-07 1.5042e-37
3.8632e-07 4.3611e-37
3.8664e-07 9.8587e-37
3.8697e-07 2.0876e-36
3.8729e-07 4.0593e-36
3.8761e-07 7.2203e-36
3.8793e-07 1.2497e-35
3.8826e-07 2.4924e-35
3.8858e-07 2.5338e-33
3.8891e-07 8.4272e-33
3.8923e-07 1.6431e-32
3.8956e-07 2.7337e-32
3.8988e-07 4.888e-32
3.9021e-07 7.7102e-32
3.9053e-07 9.5347e-32
3.9086e-07 1.0517e-31
3.9118e-07 9.1468e-32
3.9151e-07 7.4035e-32
3.9184e-07 5.3373e-32
3.9216e-07 5.072e-32
3.9249e-07 6.4013e-32
3.9282e-07 7.5095e-32
3.9315e-07 7.1902e-32
3.9347e-07 4.6605e-32
3.938e-07 2.3382e-32
3.9413e-07 1.0169e-32
3.9446e-07 1.4409e-32
3.9479e-07 3.1603e-32
3.9512e-07 4.4067e-32
3.9545e-07 4.8336e-32
3.9578e-07 6.2808e-32
3.9611e-07 1.3377e-31
3.9644e-07 2.6616e-31
3.9677e-07 4.3631e-31
3.971e-07 7.7892e-31
3.9743e-07 8.1187e-31
3.9776e-07 4.9697e-31
3.9809e-07 3.7609e-31
3.9843e-07 4.3166e-31
3.9876e-07 4.5623e-31
3.9909e-07 4.527e-31
3.9942e-07 4.5921e-31
3.9976e-07 4.6889e-31
4.0009e-07 3.8783e-31
4.0042e-07 3.1333e-31
4.0076e-07 2.6949e-31
4.0109e-07 2.0554e-31
4.0143e-07 1.652e-31
4.0176e-07 1.5339e-31
4.021e-07 1.3861e-31
4.0243e-07 1.0847e-31
4.0277e-07 8.6424e-32
4.031e-07 7.8788e-32
4.0344e-07 6.0771e-32
4.0378e-07 4.7024e-32
4.0411e-07 4.8984e-32
4.0445e-07 4.9165e-32
4.0479e-07 3.6032e-32
4.0513e-07 2.5869e-32
4.0546e-07 2.1431e-32
4.058e-07 1.2915e-32
4.0614e-07 1.0094e-32
4.0648e-07 1.0013e-32
4.0682e-07 4.4653e-33
4.0716e-07 2.7371e-33
4.075e-07 5.1022e-33
4.0784e-07 5.1203e-33
4.0818e-07 6.4146e-33
4.0852e-07 1.0597e-32
4.0886e-07 8.1943e-33
4.092e-07 3.1495e-33
4.0954e-07 2.4021e-35
4.0988e-07 7.8231e-36
4.1023e-07 7.7561e-36
4.1057e-07 1.4139e-35
4.1091e-07 1.8412e-33
4.1125e-07 3.6313e-33
4.116e-07 2.1198e-33
4.1194e-07 5.3536e-33
4.1228e-07 1.7221e-32
4.1263e-07 2.9973e-32
4.1297e-07 3.5615e-32
4.1332e-07 3.5219e-32
4.1366e-07 3.2073e-32
4.1401e-07 3.8173e-32
4.1435e-07 6.3078e-32
4.147e-07 1.1485e-31
4.1504e-07 1.9401e-31
4.1539e-07 2.3663e-31
4.1574e-07 2.7312e-31
4.1608e-07 3.6777e-31
4.1643e-07 5.3354e-31
4.1678e-07 5.8396e-31
4.1712e-07 3.6829e-31
4.1747e-07 2.0672e-31
4.1782e-07 2.1803e-31
4.1817e-07 2.5554e-31
4.1852e-07 2.3733e-31
4.1887e-07 2.1867e-31
4.1922e-07 2.0054e-31
4.1957e-07 1.7452e-31
4.1992e-07 1.2413e-31
4.2027e-07 8.7044e-32
4.2062e-07 6.8526e-32
4.2097e-07 5.0828e-32
4.2132e-07 4.1875e-32
4.2167e-07 3.2259e-32
4.2202e-07 2.4856e-32
4.2238e-07 1.7801e-32
4.2273e-07 1.1049e-32
4.2308e-07 7.6916e-33
4.2343e-07 5.0943e-33
4.2379e-07 2.8386e-33
4.2414e-07 2.3439e-33
4.2449e-07 1.3355e-32
4.2485e-07 4.0977e-32
4.252e-07 5.8956e-32
4.2556e-07 7.5034e-32
4.2591e-07 1.2277e-31
4.2627e-07 1.4865e-31
4.2662e-07 9.8752e-32
4.2698e-07 6.0406e-32
4.2733e-07 7.3426e-32
4.2769e-07 8.1689e-32
4.2805e-07 6.7678e-32
4.2841e-07 6.1646e-32
4.2876e-07 6.984e-32
4.2912e-07 7.2799e-32
4.2948e-07 5.6281e-32
4.2984e-07 3.9207e-32
4.302e-07 3.5652e-32
4.3055e-07 2.2947e-32
4.3091e-07 9.4724e-33
4.3127e-07 6.9057e-33
4.3163e-07 6.4207e-33
4.3199e-07 4.7766e-33
4.3235e-07 2.988e-33
4.3271e-07 1.9872e-33
4.3307e-07 1.1602e-33
4.3344e-07 2.8578e-34
4.338e-07 4.4168e-36
4.3416e-07 3.6992e-36
4.3452e-07 4.9389e-36
4.3488e-07 2.1172e-35
4.3525e-07 2.2604e-33
4.3561e-07 6.05e-33
4.3597e-07 6.3196e-33
4.3634e-07 2.8229e-33
4.367e-07 4.5747e-34
4.3707e-07 6.3371e-35
4.3743e-07 4.0714e-33
4.3779e-07 1.1296e-32
4.3816e-07 1.877e-32
4.3853e-07 3.5856e-32
4.3889e-07 9.1929e-32
4.3926e-07 1.3154e-31
4.3962e-07 1.5553e-31
4.3999e-07 2.1306e-31
4.4036e-07 2.6518e-31
4.4073e-07 3.2445e-31
4.4109e-07 5.6591e-31
4.4146e-07 9.6775e-31
4.4183e-07 1.1512e-30
4.422e-07 1.714e-30
4.4257e-07 3.0676e-30
4.4294e-07 3.4628e-30
4.4331e-07 2.37e-30
4.4368e-07 1.3197e-30
4.4405e-07 1.2625e-30
4.4442e-07 1.6205e-30
4.4479e-07 1.8948e-30
4.4516e-07 1.8461e-30
4.4553e-07 1.8103e-30
4.459e-07 1.7805e-30
4.4627e-07 1.4268e-30
4.4664e-07 1.1126e-30
4.4702e-07 9.8659e-31
4.4739e-07 8.4834e-31
4.4776e-07 6.6887e-31
4.4814e-07 4.9353e-31
4.4851e-07 3.9544e-31
4.4889e-07 3.2743e-31
4.4926e-07 2.1905e-31
4.4963e-07 1.5609e-31
4.5001e-07 1.1004e-31
4.5038e-07 9.0909e-32
4.5076e-07 7.733e-32
4.5114e-07 4.8248e-32
4.5151e-07 2.5326e-32
4.5189e-07 2.0042e-32
4.5227e-07 3.0463e-32
4.5264e-07 5.4057e-32
4.5302e-07 7.4499e-32
4.534e-07 5.9818e-32
4.5378e-07 3.3333e-32
4.5416e-07 3.7669e-32
4.5454e-07 6.1385e-32
4.5491e-07 6.3935e-32
4.5529e-07 5.7596e-32
4.5567e-07 6.1958e-32
4.5605e-07 6.76e-32
4.5643e-07 8.3013e-32
4.5682e-07 9.5687e-32
4.572e-07 6.9455e-32
4.5758e-07 3.9129e-32
4.5796e-07 4.451e-32
4.5834e-07 5.1876e-32
4.5872e-07 4.805e-32
4.5911e-07 4.1965e-32
4.5949e-07 3.3588e-32
4.5987e-07 3.0264e-32
4.6026e-07 2.6681e-32
4.6064e-07 1.6695e-32
4.6102e-07 1.0028e-32
4.6141e-07 6.5469e-33
4.6179e-07 2.5859e-33
4.6218e-07 3.3219e-33
4.6256e-07 5.6739e-33
4.6295e-07 3.4492e-33
4.6334e-07 1.2998e-33
4.6372e-07 5.4186e-33
4.6411e-07 9.7173e-33
4.645e-07 8.7094e-33
4.6489e-07 8.1324e-33
4.6527e-07 1.446e-32
4.6566e-07 3.6883e-32
4.6605e-07 9.1908e-32
4.6644e-07 2.0975e-31
4.6683e-07 4.081e-31
4.6722e-07 5.8174e-31
4.6761e-07 5.6279e-31
4.68e-07 4.6244e-31
4.6839e-07 5.5923e-31
4.6878e-07 7.7171e-31
4.6917e-07 1.0056e-30
4.6956e-07 1.3916e-30
4.6995e-07 1.4463e-30
4.7034e-07 1.0141e-30
4.7074e-07 8.9142e-31
4.7113e-07 8.9979e-31
4.7152e-07 7.2347e-31
4.7192e-07 6.4677e-31
4.7231e-07 7.8628e-31
4.727e-07 7.9459e-31
4.731e-07 7.6708e-31
4.7349e-07 6.5328e-31
4.7389e-07 4.8008e-31
4.7428e-07 4.3526e-31
4.7468e-07 3.8146e-31
4.7507e-07 2.6261e-31
4.7547e-07 1.9731e-31
4.7587e-07 1.7377e-31
4.7626e-07 1.4746e-31
4.7666e-07 1.1851e-31
4.7706e-07 8.8494e-32
4.7746e-07 5.8132e-32
4.7786e-07 4.0075e-32
4.7825e-07 2.6733e-32
4.7865e-07 1.8569e-32
4.7905e-07 1.1101e-32
4.7945e-07 3.2868e-33
4.7985e-07 6.0047e-34
4.8025e-07 3.6199e-34
4.8065e-07 9.7501e-35
4.8105e-07 1.5207e-33
4.8146e-07 4.3033e-33
4.8186e-07 8.9962e-33
4.8226e-07 1.5662e-32
4.8266e-07 2.6778e-32
4.8306e-07 6.1884e-32
4.8347e-07 1.2933e-31
4.8387e-07 2.3542e-31
4.8427e-07 4.6329e-31
4.8468e-07 9.0768e-31
4.8508e-07 1.3056e-30
4.8549e-07 1.2704e-30
4.8589e-07 9.3273e-31
4.863e-07 6.9518e-31
4.867e-07 7.6028e-31
4.8711e-07 9.2175e-31
4.8752e-07 9.1339e-31
4.8792e-07 8.7541e-31
4.8833e-07 7.6509e-31
4.8874e-07 8.2477e-31
4.8914e-07 9.5823e-31
4.8955e-07 8.0283e-31
4.8996e-07 5.7398e-31
4.9037e-07 5.1089e-31
4.9078e-07 4.8615e-31
4.9119e-07 4.3928e-31
4.916e-07 3.8041e-31
4.9201e-07 2.8821e-31
4.9242e-07 2.6528e-31
4.9283e-07 2.1901e-31
4.9324e-07 1.5574e-31
4.9365e-07 1.0997e-31
4.9406e-07 8.3889e-32
4.9448e-07 6.6899e-32
4.9489e-07 4.9146e-32
4.953e-07 3.483e-32
4.9571e-07 2.7863e-32
4.9613e-07 2.5719e-32
4.9654e-07 2.2649e-32
4.9696e-07 3.2965e-32
4.9737e-07 5.3844e-32
4.9779e-07 1.0845e-31
4.982e-07 2.3087e-31
4.9862e-07 3.5939e-31
4.9903e-07 4.8463e-31
4.9945e-07 6.4358e-31
4.9986e-07 8.5795e-31
5.0028e-07 1.1108e-30
5.007e-07 1.3418e-30
5.0112e-07 1.9298e-30
5.0154e-07 3.1681e-30
5.0195e-07 3.8208e-30
5.0237e-07 4.3921e-30
5.0279e-07 5.755e-30
5.0321e-07 1.0094e-29
5.0363e-07 1.6297e-29
5.0405e-07 1.8164e-29
5.0447e-07 1.4168e-29
5.0489e-07 8.3687e-30
5.0531e-07 6.789e-30
5.0573e-07 9.0184e-30
5.0616e-07 9.2021e-30
5.0658e-07 8.5508e-30
5.07e-07 9.7563e-30
5.0742e-07 1.0649e-29
5.0785e-07 9.6855e-30
5.0827e-07 8.0515e-30
5.087e-07 6.7194e-30
5.0912e-07 5.8144e-30
5.0954e-07 5.4672e-30
5.0997e-07 4.5957e-30
5.104e-07 3.4613e-30
5.1082e-07 2.7072e-30
5.1125e-07 2.265e-30
5.1167e-07 1.7711e-30
5.121e-07 1.4419e-30
5.1253e-07 1.2092e-30
5.1296e-07 8.7176e-31
5.1338e-07 6.2585e-31
5.1381e-07 4.2588e-31
5.1424e-07 3.0124e-31
5.1467e-07 2.5504e-31
5.151e-07 2.2307e-31
5.1553e-07 1.9482e-31
5.1596e-07 1.6177e-31
5.1639e-07 1.4959e-31
5.1682e-07 1.3486e-31
5.1725e-07 1.1345e-31
5.1768e-07 1.0258e-31
5.1811e-07 9.0679e-32
5.1855e-07 8.0816e-32
5.1898e-07 7.9138e-32
5.1941e-07 7.4887e-32
5.1984e-07 6.2385e-32
5.2028e-07 5.1064e-32
5.2071e-07 4.719e-32
5.2115e-07 4.8059e-32
5.2158e-07 6.0519e-32
5.2202e-07 8.0963e-32
5.2245e-07 9.8368e-32
5.2289e-07 2.0126e-31
5.2332e-07 4.5878e-31
5.2376e-07 9.3222e-31
5.242e-07 1.4498e-30
5.2464e-07 1.5416e-30
5.2507e-07 1.2277e-30
5.2551e-07 7.7826e-31
5.2595e-07 4.0057e-31
5.2639e-07 5.3123e-31
5.2683e-07 9.8361e-31
5.2727e-07 1.0177e-30
5.2771e-07 6.9007e-31
5.2815e-07 5.505e-31
5.2859e-07 6.6194e-31
5.2903e-07 7.3406e-31
5.2947e-07 7.0199e-31
5.2991e-07 7.3122e-31
5.3035e-07 7.4383e-31
5.308e-07 6.9213e-31
5.3124e-07 5.543e-31
5.3168e-07 4.6051e-31
5.3213e-07 4.1043e-31
5.3257e-07 3.7894e-31
5.3301e-07 2.9799e-31
5.3346e-07 2.1779e-31
5.339e-07 1.9469e-31
5.3435e-07 1.9392e-31
5.3479e-07 2.3754e-31
5.3524e-07 2.8693e-31
5.3569e-07 3.19e-31
5.3613e-07 3.4822e-31
5.3658e-07 4.4942e-31
5.3703e-07 5.2579e-31
5.3748e-07 6.0429e-31
5.3793e-07 7.8782e-31
5.3837e-07 1.0081e-30
5.3882e-07 1.1743e-30
5.3927e-07 1.6492e-30
5.3972e-07 2.3588e-30
5.4017e-07 3.2134e-30
5.4062e-07 5.2773e-30
5.4107e-07 7.6068e-30
5.4153e-07 8.0666e-30
5.4198e-07 6.9635e-30
5.4243e-07 5.6405e-30
5.4288e-07 4.5951e-30
5.4334e-07 5.4581e-30
5.4379e-07 6.3768e-30
5.4424e-07 5.2712e-30
5.447e-07 4.5749e-30
5.4515e-07 4.931e-30
5.4561e-07 5.6663e-30
5.4606e-07 7.1596e-30
5.4652e-07 7.0145e-30
5.4697e-07 5.1207e-30
5.4743e-07 3.6917e-30
5.4788e-07 3.1605e-30
5.4834e-07 2.6207e-30
5.488e-07 2.1934e-30
5.4926e-07 2.2447e-30
5.4972e-07 2.2801e-30
5.5017e-07 1.9204e-30
5.5063e-07 1.4694e-30
5.5109e-07 1.3048e-30
5.5155e-07 9.9908e-31
5.5201e-07 6.8735e-31
5.5247e-07 5.4348e-31
5.5293e-07 4.3224e-31
5.5339e-07 3.2365e-31
5.5386e-07 2.5383e-31
5.5432e-07 2.1607e-31
5.5478e-07 2.0688e-31
5.5524e-07 1.5797e-31
5.5571e-07 1.0759e-31
5.5617e-07 6.1863e-32
5.5663e-07 3.4716e-32
5.571e-07 5.0343e-32
5.5756e-07 8.48e-32
5.5803e-07 1.2274e-31
5.5849e-07 1.6775e-31
5.5896e-07 2.0112e-31
5.5943e-07 2.2827e-31
5.5989e-07 2.9959e-31
5.6036e-07 3.5867e-31
5.6083e-07 3.9847e-31
5.613e-07 3.9351e-31
5.6176e-07 3.8851e-31
5.6223e-07 4.7552e-31
5.627e-07 5.4091e-31
5.6317e-07 4.2528e-31
5.6364e-07 3.3603e-31
5.6411e-07 4.1195e-31
5.6458e-07 4.7857e-31
5.6505e-07 5.0614e-31
5.6552e-07 5.1366e-31
5.66e-07 6.9261e-31
5.6647e-07 1.1423e-30
5.6694e-07 1.7637e-30
5.6741e-07 2.8727e-30
5.6789e-07 5.801e-30
5.6836e-07 1.0563e-29
5.6883e-07 1.4654e-29
5.6931e-07 1.507e-29
5.6978e-07 1.3584e-29
5.7026e-07 1.0226e-29
5.7074e-07 5.9135e-30
5.7121e-07 4.5342e-30
5.7169e-07 7.3384e-30
5.7216e-07 9.9187e-30
5.7264e-07 9.5713e-30
5.7312e-07 8.6733e-30
5.736e-07 7.706e-30
5.7408e-07 8.6013e-30
5.7456e-07 9.375e-30
5.7503e-07 7.7466e-30
5.7551e-07 6.895e-30
5.7599e-07 6.4915e-30
5.7647e-07 5.757e-30
5.7696e-07 5.8118e-30
5.7744e-07 5.7971e-30
5.7792e-07 4.476e-30
5.784e-07 3.2741e-30
5.7888e-07 2.7687e-30
5.7937e-07 2.5095e-30
5.7985e-07 2.1571e-30
5.8033e-07 1.9441e-30
5.8082e-07 1.8768e-30
5.813e-07 1.9243e-30
5.8179e-07 2.0195e-30
5.8227e-07 2.1692e-30
5.8276e-07 2.2627e-30
5.8324e-07 2.5713e-30
5.8373e-07 2.8509e-30
5.8422e-07 3.0393e-30
5.8471e-07 3.3044e-30
5.8519e-07 3.5768e-30
5.8568e-07 4.5918e-30
5.8617e-07 6.7225e-30
5.8666e-07 9.599e-30
5.8715e-07 1.3526e-29
5.8764e-07 2.3036e-29
5.8813e-07 3.9939e-29
5.8862e-07 6.0372e-29
5.8911e-07 7.1205e-29
5.896e-07 7.1671e-29
5.9009e-07 6.9396e-29
5.9059e-07 5.9508e-29
5.9108e-07 5.2536e-29
5.9157e-07 5.8616e-29
5.9206e-07 6.8269e-29
5.9256e-07 6.0342e-29
5.9305e-07 4.1467e-29
5.9355e-07 3.5781e-29
5.9404e-07 5.2106e-29
5.9454e-07 7.094e-29
5.9503e-07 6.3312e-29
5.9553e-07 4.4156e-29
5.9603e-07 3.7179e-29
5.9652e-07 3.7718e-29
5.9702e-07 3.885e-29
5.9752e-07 3.5485e-29
5.9802e-07 2.8351e-29
5.9852e-07 2.3913e-29
5.9902e-07 2.2177e-29
5.9952e-07 1.9786e-29
6.0002e-07 1.5354e-29
6.0052e-07 1.153e-29
6.0102e-07 8.5398e-30
6.0152e-07 7.3668e-30
6.0202e-07 6.0074e-30
6.0252e-07 4.4257e-30
6.0303e-07 3.5577e-30
6.0353e-07 2.5791e-30
6.0403e-07 1.7639e-30
6.0454e-07 1.4654e-30
6.0504e-07 1.1252e-30
6.0555e-07 8.8374e-31
6.0605e-07 7.0811e-31
6.0656e-07 4.9778e-31
6.0706e-07 3.7261e-31
6.0757e-07 3.2544e-31
6.0808e-07 2.619e-31
6.0858e-07 2.1554e-31
6.0909e-07 1.7618e-31
6.096e-07 1.3674e-31
6.1011e-07 1.1612e-31
6.1062e-07 9.4507e-32
6.1113e-07 7.4259e-32
6.1164e-07 6.5741e-32
6.1215e-07 6.1005e-32
6.1266e-07 5.296e-32
6.1317e-07 4.0208e-32
6.1368e-07 3.5901e-32
6.1419e-07 3.8979e-32
6.147e-07 4.6162e-32
6.1522e-07 4.9299e-32
6.1573e-07 4.5111e-32
6.1624e-07 5.0054e-32
6.1676e-07 5.8452e-32
6.1727e-07 6.0695e-32
6.1779e-07 7.3569e-32
6.183e-07 9.7329e-32
6.1882e-07 1.038e-31
6.1933e-07 1.0472e-31
6.1985e-07 1.145e-31
6.2037e-07 1.2097e-31
6.2089e-07 1.2012e-31
6.214e-07 1.3383e-31
6.2192e-07 1.5293e-31
6.2244e-07 1.7762e-31
6.2296e-07 2.1157e-31
6.2348e-07 2.7328e-31
6.24e-07 3.4446e-31
6.2452e-07 5.7405e-31
6.2504e-07 9.934e-31
6.2556e-07 1.714e-30
6.2609e-07 3.0469e-30
6.2661e-07 5.1928e-30
6.2713e-07 7.8089e-30
6.2765e-07 1.0071e-29
6.2818e-07 1.1243e-29
6.287e-07 1.0812e-29
6.2923e-07 9.5952e-30
6.2975e-07 7.1397e-30
6.3028e-07 3.797e-30
6.308e-07 2.1383e-30
6.3133e-07 5.1069e-30
6.3185e-07 9.4731e-30
6.3238e-07 9.775e-30
6.3291e-07 7.1182e-30
6.3344e-07 5.5046e-30
6.3397e-07 5.2253e-30
6.3449e-07 5.9694e-30
6.3502e-07 6.0251e-30
6.3555e-07 5.2542e-30
6.3608e-07 4.8948e-30
6.3661e-07 4.7439e-30
6.3715e-07 4.8626e-30
6.3768e-07 4.4142e-30
6.3821e-07 3.834e-30
6.3874e-07 3.9162e-30
6.3927e-07 4.0945e-30
6.3981e-07 3.9334e-30
6.4034e-07 4.0295e-30
6.4088e-07 4.2429e-30
6.4141e-07 4.0927e-30
6.4195e-07 4.0273e-30
6.4248e-07 4.0552e-30
6.4302e-07 4.5587e-30
6.4355e-07 5.4227e-30
6.4409e-07 6.3461e-30
6.4463e-07 7.8197e-30
6.4516e-07 1.0392e-29
6.457e-07 1.6837e-29
6.4624e-07 2.699e-29
6.4678e-07 3.8293e-29
6.4732e-07 5.1913e-29
6.4786e-07 6.1771e-29
6.484e-07 5.7522e-29
6.4894e-07 4.9389e-29
6.4948e-07 4.0797e-29
6.5003e-07 2.7115e-29
6.5057e-07 1.8359e-29
6.5111e-07 3.1136e-29
6.5165e-07 5.237e-29
6.522e-07 4.6797e-29
6.5274e-07 2.6849e-29
6.5329e-07 2.0968e-29
6.5383e-07 2.2379e-29
6.5438e-07 2.6407e-29
6.5492e-07 3.363e-29
6.5547e-07 3.4184e-29
6.5601e-07 2.9489e-29
6.5656e-07 2.6152e-29
6.5711e-07 2.6025e-29
6.5766e-07 2.3527e-29
6.5821e-07 1.8546e-29
6.5876e-07 1.4929e-29
6.5931e-07 1.1329e-29
6.5986e-07 9.4757e-30
6.6041e-07 8.6412e-30
6.6096e-07 5.8752e-30
6.6151e-07 4.1379e-30
6.6206e-07 3.2853e-30
6.6261e-07 3.0015e-30
6.6317e-07 3.1351e-30
6.6372e-07 2.7347e-30
6.6427e-07 2.7434e-30
6.6483e-07 2.497e-30
6.6538e-07 1.9339e-30
6.6594e-07 1.6861e-30
6.6649e-07 1.5912e-30
6.6705e-07 1.2395e-30
6.676e-07 8.9107e-31
6.6816e-07 7.4094e-31
6.6872e-07 6.4968e-31
6.6928e-07 4.8302e-31
6.6983e-07 3.3349e-31
6.7039e-07 2.7013e-31
6.7095e-07 1.9688e-31
6.7151e-07 1.3652e-31
6.7207e-07 1.3068e-31
6.7263e-07 1.2667e-31
6.7319e-07 8.5495e-32
6.7376e-07 6.8553e-32
6.7432e-07 8.5433e-32
6.7488e-07 8.2999e-32
6.7544e-07 8.8247e-32
6.7601e-07 1.2216e-31
6.7657e-07 1.7505e-31
6.7714e-07 2.0083e-31
6.777e-07 2.4656e-31
6.7827e-07 3.4503e-31
6.7883e-07 4.1645e-31
6.794e-07 4.6676e-31
6.7996e-07 6.9951e-31
6.8053e-07 9.0474e-31
6.811e-07 9.8087e-31
6.8167e-07 1.2722e-30
6.8224e-07 1.7511e-30
6.8281e-07 1.9536e-30
6.8338e-07 1.8815e-30
6.8395e-07 2.3371e-30
6.8452e-07 2.6934e-30
6.8509e-07 2.4284e-30
6.8566e-07 2.4647e-30
6.8623e-07 3.2612e-30
6.868e-07 4.0567e-30
6.8738e-07 3.5459e-30
6.8795e-07 2.2962e-30
6.8852e-07 2.0138e-30
6.891e-07 2.4596e-30
6.8967e-07 3.2245e-30
6.9025e-07 5.2254e-30
6.9082e-07 8.7538e-30
6.914e-07 1.3557e-29
6.9198e-07 2.6005e-29
6.9255e-07 5.4644e-29
6.9313e-07 8.3407e-29
6.9371e-07 1.0429e-28
6.9429e-07 1.1824e-28
6.9487e-07 1.0482e-28
6.9545e-07 9.0103e-29
6.9603e-07 7.9977e-29
6.9661e-07 5.0586e-29
6.9719e-07 2.7523e-29
6.9777e-07 2.5232e-29
6.9835e-07 4.4801e-29
6.9894e-07 7.1086e-29
6.9952e-07 8.0243e-29
7.001e-07 7.7707e-29
7.0069e-07 7.6312e-29
7.0127e-07 7.4723e-29
7.0186e-07 7.5271e-29
7.0244e-07 7.477e-29
7.0303e-07 6.1775e-29
7.0361e-07 4.7007e-29
7.042e-07 4.644e-29
7.0479e-07 4.8369e-29
7.0538e-07 5.0361e-29
7.0596e-07 4.9362e-29
7.0655e-07 4.1114e-29
7.0714e-07 3.6212e-29
7.0773e-07 3.4974e-29
7.0832e-07 3.2745e-29
7.0891e-07 2.8896e-29
7.0951e-07 2.7893e-29
7.101e-07 2.8785e-29
7.1069e-07 2.7062e-29
7.1128e-07 2.3282e-29
7.1188e-07 2.0843e-29
7.1247e-07 2.2724e-29
7.1306e-07 2.5869e-29
7.1366e-07 2.5963e-29
7.1425e-07 3.0798e-29
7.1485e-07 3.9912e-29
7.1545e-07 4.8442e-29
7.1604e-07 7.4171e-29
7.1664e-07 1.5335e-28
7.1724e-07 2.6283e-28
7.1784e-07 3.2038e-28
7.1844e-07 3.2461e-28
7.1904e-07 3.4243e-28
7.1964e-07 3.5036e-28
7.2024e-07 3.3142e-28
7.2084e-07 2.4072e-28
7.2144e-07 1.3462e-28
7.2204e-07 9.7412e-29
7.2264e-07 1.2244e-28
7.2324e-07 1.9204e-28
7.2385e-07 2.6159e-28
7.2445e-07 2.6626e-28
7.2506e-07 2.5565e-28
7.2566e-07 2.5463e-28
7.2627e-07 2.3974e-28
7.2687e-07 2.2852e-28
7.2748e-07 2.4858e-28
7.2809e-07 2.3245e-28
7.2869e-07 2.0227e-28
7.293e-07 2.1797e-28
7.2991e-07 2.1793e-28
7.3052e-07 2.1598e-28
7.3113e-07 2.1463e-28
7.3174e-07 1.8277e-28
7.3235e-07 1.2845e-28
7.3296e-07 1.0311e-28
7.3357e-07 8.828e-29
7.3418e-07 6.8284e-29
7.348e-07 6.744e-29
7.3541e-07 7.2785e-29
7.3602e-07 7.3971e-29
7.3664e-07 7.6635e-29
7.3725e-07 6.4027e-29
7.3787e-07 4.9539e-29
7.3848e-07 4.7176e-29
7.391e-07 4.4432e-29
7.3971e-07 3.5871e-29
7.4033e-07 2.6319e-29
7.4095e-07 2.0016e-29
7.4157e-07 1.768e-29
7.4218e-07 1.5052e-29
7.428e-07 1.218e-29
7.4342e-07 7.8555e-30
7.4404e-07 5.8338e-30
7.4466e-07 5.1798e-30
7.4529e-07 4.1833e-30
7.4591e-07 3.5851e-30
7.4653e-07 2.8047e-30
7.4715e-07 2.4144e-30
7.4778e-07 2.0291e-30
7.484e-07 1.5593e-30
7.4902e-07 1.3444e-30
7.4965e-07 1.2943e-30
7.5027e-07 1.3249e-30
7.509e-07 1.2384e-30
7.5153e-07 9.9357e-31
7.5215e-07 7.6514e-31
7.5278e-07 5.6017e-31
7.5341e-07 4.7577e-31
7.5404e-07 5.2091e-31
7.5467e-07 4.3169e-31
7.553e-07 3.7753e-31
7.5593e-07 3.587e-31
7.5656e-07 2.8019e-31
7.5719e-07 2.942e-31
7.5782e-07 4.4765e-31
7.5845e-07 4.9222e-31
7.5908e-07 3.7476e-31
7.5972e-07 2.6693e-31
7.6035e-07 2.5685e-31
7.6099e-07 2.3156e-31
7.6162e-07 1.9827e-31
7.6226e-07 1.4645e-31
7.6289e-07 1.0147e-31
7.6353e-07 1.0124e-31
7.6417e-07 9.1583e-32
7.648e-07 5.9517e-32
7.6544e-07 4.3846e-32
7.6608e-07 3.8416e-32
7.6672e-07 3.1293e-32
7.6736e-07 2.5387e-32
7.68e-07 2.297e-32
7.6864e-07 2.608e-32
7.6928e-07 3.1683e-32
7.6992e-07 3.9874e-32
7.7056e-07 4.5751e-32
7.7121e-07 6.7865e-32
7.7185e-07 9.4365e-32
7.7249e-07 1.1897e-31
7.7314e-07 1.3801e-31
7.7378e-07 1.5475e-31
7.7443e-07 1.7382e-31
7.7508e-07 2.0821e-31
7.7572e-07 2.5195e-31
7.7637e-07 2.18e-31
7.7702e-07 2.2827e-31
7.7766e-07 3.0056e-31
7.7831e-07 3.4423e-31
7.7896e-07 4.9407e-31
7.7961e-07 6.6148e-31
7.8026e-07 6.9654e-31
7.8091e-07 7.2982e-31
7.8157e-07 9.4231e-31
7.8222e-07 1.2654e-30
7.8287e-07 1.619e-30
7.8352e-07 2.6289e-30
7.8418e-07 4.5057e-30
7.8483e-07 6.0123e-30
7.8549e-07 7.0004e-30
7.8614e-07 1.226e-29
7.868e-07 2.1348e-29
7.8745e-07 2.5978e-29
7.8811e-07 2.8417e-29
7.8877e-07 3.8352e-29
7.8943e-07 5.1506e-29
7.9008e-07 5.1658e-29
7.9074e-07 4.4211e-29
7.914e-07 4.0646e-29
7.9206e-07 3.9707e-29
7.9272e-07 3.7341e-29
7.9339e-07 2.6573e-29
7.9405e-07 1.4361e-29
7.9471e-07 1.3994e-29
7.9537e-07 2.9205e-29
7.9604e-07 5.1567e-29
7.967e-07 5.6437e-29
7.9736e-07 3.8452e-29
7.9803e-07 2.9989e-29
7.987e-07 3.0796e-29
7.9936e-07 3.4972e-29
8.0003e-07 4.4277e-29
8.007e-07 5.1576e-29
8.0136e-07 5.2466e-29
8.0203e-07 5.1661e-29
8.027e-07 5.3438e-29
8.0337e-07 5.0958e-29
8.0404e-07 4.7364e-29
8.0471e-07 4.1259e-29
8.0538e-07 2.7986e-29
8.0606e-07 2.3304e-29
8.0673e-07 2.5883e-29
8.074e-07 2.518e-29
8.0807e-07 2.9019e-29
8.0875e-07 3.7358e-29
8.0942e-07 4.5304e-29
8.101e-07 5.4508e-29
8.1077e-07 6.996e-29
8.1145e-07 9.0091e-29
8.1213e-07 1.0805e-28
8.1281e-07 1.475e-28
8.1348e-07 2.0438e-28
8.1416e-07 2.4159e-28
8.1484e-07 2.8205e-28
8.1552e-07 3.0661e-28
8.162e-07 3.2297e-28
8.1688e-07 3.2013e-28
8.1756e-07 2.92e-28
8.1825e-07 2.8283e-28
8.1893e-07 2.4967e-28
8.1961e-07 2.1871e-28
8.203e-07 1.7224e-28
8.2098e-07 1.1028e-28
8.2166e-07 1.1825e-28
8.2235e-07 2.5724e-28
8.2304e-07 4.0715e-28
8.2372e-07 3.1943e-28
8.2441e-07 1.6193e-28
8.251e-07 1.1252e-28
8.2579e-07 1.2858e-28
8.2647e-07 1.2912e-28
8.2716e-07 1.482e-28
8.2785e-07 2.0056e-28
8.2854e-07 2.0914e-28
8.2924e-07 1.8813e-28
8.2993e-07 1.7373e-28
8.3062e-07 1.5712e-28
8.3131e-07 1.5476e-28
8.3201e-07 1.5815e-28
8.327e-07 1.4158e-28
8.334e-07 1.32e-28
8.3409e-07 1.1911e-28
8.3479e-07 8.8466e-29
8.3548e-07 8.3839e-29
8.3618e-07 8.4637e-29
8.3688e-07 7.3237e-29
8.3758e-07 6.6082e-29
8.3827e-07 5.527e-29
8.3897e-07 4.5061e-29
8.3967e-07 3.7878e-29
8.4037e-07 3.6793e-29
8.4107e-07 4.1022e-29
8.4178e-07 3.3813e-29
8.4248e-07 2.1384e-29
8.4318e-07 2.1647e-29
8.4388e-07 2.3675e-29
8.4459e-07 1.8066e-29
8.4529e-07 1.156e-29
8.46e-07 1.0033e-29
8.467e-07 8.1426e-30
8.4741e-07 7.76e-30
8.4812e-07 1.0288e-29
8.4883e-07 1.0852e-29
8.4953e-07 1.0007e-29
8.5024e-07 1.0668e-29
8.5095e-07 1.3682e-29
8.5166e-07 1.617e-29
8.5237e-07 1.3216e-29
8.5308e-07 1.0029e-29
8.5379e-07 1.1012e-29
8.5451e-07 1.1019e-29
8.5522e-07 8.8932e-30
8.5593e-07 6.9497e-30
8.5665e-07 6.1115e-30
8.5736e-07 6.5402e-30
8.5808e-07 5.146e-30
8.5879e-07 3.8603e-30
8.5951e-07 3.6475e-30
8.6023e-07 2.5691e-30
8.6094e-07 1.8765e-30
8.6166e-07 1.5832e-30
8.6238e-07 1.4054e-30
8.631e-07 1.1524e-30
8.6382e-07 7.5326e-31
8.6454e-07 6.243e-31
8.6526e-07 5.319e-31
8.6598e-07 3.6772e-31
8.6671e-07 2.9431e-31
8.6743e-07 3.3273e-31
8.6815e-07 3.2562e-31
8.6888e-07 3.0096e-31
8.696e-07 2.7624e-31
8.7033e-07 3.293e-31
8.7105e-07 4.1135e-31
8.7178e-07 3.4794e-31
8.7251e-07 3.1275e-31
8.7324e-07 5.2533e-31
8.7396e-07 8.1538e-31
8.7469e-07 9.0233e-31
8.7542e-07 1.1057e-30
8.7615e-07 1.4699e-30
8.7688e-07 1.3753e-30
8.7762e-07 2.4546e-30
8.7835e-07 4.0002e-30
8.7908e-07 3.563e-30
8.7981e-07 3.3705e-30
8.8055e-07 4.723e-30
8.8128e-07 6.0776e-30
8.8202e-07 6.9402e-30
8.8275e-07 7.1218e-30
8.8349e-07 6.5743e-30
8.8423e-07 5.4791e-30
8.8496e-07 7.6098e-30
8.857e-07 1.2979e-29
8.8644e-07 1.375e-29
8.8718e-07 1.2524e-29
8.8792e-07 1.3921e-29
8.8866e-07 1.2246e-29
8.894e-07 1.1419e-29
8.9015e-07 1.5116e-29
8.9089e-07 1.7913e-29
8.9163e-07 2.2353e-29
8.9237e-07 4.5614e-29
8.9312e-07 8.1055e-29
8.9386e-07 1.0346e-28
8.9461e-07 1.4439e-28
8.9536e-07 2.05e-28
8.961e-07 2.5593e-28
8.9685e-07 3.0483e-28
8.976e-07 3.0374e-28
8.9835e-07 3.4649e-28
8.991e-07 4.21e-28
8.9985e-07 3.7652e-28
9.006e-07 3.5167e-28
9.0135e-07 3.4825e-28
9.021e-07 3.2189e-28
9.0285e-07 2.6377e-28
9.0361e-07 1.7374e-28
9.0436e-07 1.3454e-28
9.0512e-07 1.4001e-28
9.0587e-07 1.6895e-28
9.0663e-07 2.6014e-28
9.0738e-07 3.4212e-28
9.0814e-07 3.5986e-28
9.089e-07 3.5775e-28
9.0966e-07 3.65e-28
9.1041e-07 3.4678e-28
9.1117e-07 3.2132e-28
9.1193e-07 3.0412e-28
9.1269e-07 3.5823e-28
9.1346e-07 4.3897e-28
9.1422e-07 3.8896e-28
9.1498e-07 3.7849e-28
9.1574e-07 4.2486e-28
9.1651e-07 3.8217e-28
9.1727e-07 3.7879e-28
9.1804e-07 3.8739e-28
9.188e-07 3.0178e-28
9.1957e-07 2.1565e-28
9.2034e-07 1.7192e-28
9.211e-07 1.8904e-28
9.2187e-07 2.0467e-28
9.2264e-07 1.8294e-28
9.2341e-07 2.1433e-28
9.2418e-07 2.641e-28
9.2495e-07 2.5636e-28
9.2572e-07 2.3256e-28
9.265e-07 2.3322e-28
9.2727e-07 3.0254e-28
9.2804e-07 4.6554e-28
9.2882e-07 6.1889e-28
9.2959e-07 7.1622e-28
9.3037e-07 8.4275e-28
9.3114e-07 1.0225e-27
9.3192e-07 1.2603e-27
9.327e-07 1.4788e-27
9.3348e-07 1.7002e-27
9.3426e-07 1.7527e-27
9.3503e-07 1.5324e-27
9.3581e-07 1.4572e-27
9.366e-07 1.5061e-27
9.3738e-07 1.61e-27
9.3816e-07 1.4196e-27
9.3894e-07 9.2897e-28
9.3972e-07 7.1078e-28
9.4051e-07 8.0324e-28
9.4129e-07 9.1053e-28
9.4208e-07 9.5675e-28
9.4286e-07 1.0244e-27
9.4365e-07 1.0949e-27
9.4444e-07 1.1655e-27
9.4523e-07 1.1207e-27
9.4601e-07 1.1439e-27
9.468e-07 1.1199e-27
9.4759e-07 1.0597e-27
9.4838e-07 9.9564e-28
9.4918e-07 9.8087e-28
9.4997e-07 1.075e-27
9.5076e-07 9.2595e-28
9.5155e-07 9.1559e-28
9.5235e-07 1.1328e-27
9.5314e-07 1.0218e-27
9.5394e-07 8.6195e-28
9.5473e-07 9.2963e-28
9.5553e-07 9.7341e-28
9.5633e-07 9.2651e-28
9.5712e-07 8.2273e-28
9.5792e-07 7.2148e-28
9.5872e-07 8.351e-28
9.5952e-07 9.6023e-28
9.6032e-07 8.2265e-28
9.6112e-07 6.9813e-28
9.6192e-07 7.0669e-28
9.6273e-07 6.7723e-28
9.6353e-07 5.9737e-28
9.6433e-07 5.8573e-28
9.6514e-07 5.8139e-28
9.6594e-07 5.8424e-28
9.6675e-07 5.1727e-28
9.6756e-07 3.4079e-28
9.6836e-07 2.5821e-28
9.6917e-07 2.3732e-28
9.6998e-07 2.1796e-28
9.7079e-07 1.9746e-28
9.716e-07 2.0036e-28
9.7241e-07 2.3407e-28
9.7322e-07 3.0367e-28
9.7403e-07 3.5083e-28
9.7484e-07 3.4028e-28
9.7566e-07 3.6613e-28
9.7647e-07 3.3879e-28
9.7729e-07 2.511e-28
9.781e-07 2.4283e-28
9.7892e-07 2.7252e-28
9.7973e-07 2.6935e-28
9.8055e-07 2.2239e-28
9.8137e-07 1.5753e-28
9.8219e-07 1.5767e-28
9.8301e-07 1.5589e-28
9.8383e-07 1.2642e-28
9.8465e-07 1.1729e-28
9.8547e-07 9.3237e-29
9.8629e-07 6.1626e-29
9.8711e-07 6.2278e-29
9.8794e-07 5.6927e-29
9.8876e-07 4.1067e-29
9.8959e-07 4.3375e-29
9.9041e-07 4.4011e-29
9.9124e-07 3.1239e-29
9.9207e-07 2.9821e-29
9.9289e-07 3.6236e-29
9.9372e-07 2.5113e-29
9.9455e-07 1.4219e-29
9.9538e-07 1.2181e-29
9.9621e-07 1.2027e-29
9.9704e-07 1.1719e-29
9.9787e-07 1.2522e-29
9.9871e-07 1.3877e-29
9.9954e-07 1.4959e-29
1.0004e-06 1.4732e-29
1.0012e-06 2.1736e-29
1.002e-06 3.169e-29
1.0029e-06 2.446e-29
1.0037e-06 1.4877e-29
1.0046e-06 1.5589e-29
1.0054e-06 1.4057e-29
1.0062e-06 1.114e-29
1.0071e-06 1.1788e-29
1.0079e-06 1.6489e-29
1.0087e-06 2.4783e-29
1.0096e-06 2.8746e-29
1.0104e-06 1.9459e-29
1.0113e-06 1.2243e-29
1.0121e-06 1.2523e-29
1.013e-06 9.2066e-30
1.0138e-06 6.9126e-30
1.0147e-06 9.4321e-30
1.0155e-06 9.4395e-30
1.0163e-06 7.8937e-30
1.0172e-06 7.7299e-30
1.018e-06 7.9544e-30
1.0189e-06 1.0766e-29
1.0197e-06 1.198e-29
1.0206e-06 9.0643e-30
1.0214e-06 7.8717e-30
1.0223e-06 9.1165e-30
1.0232e-06 1.5421e-29
1.024e-06 1.7767e-29
1.0249e-06 1.0097e-29
1.0257e-06 5.5941e-30
1.0266e-06 7.6136e-30
1.0274e-06 9.8811e-30
1.0283e-06 8.6964e-30
1.0291e-06 5.7967e-30
1.03e-06 3.6832e-30
