2.8e-07 -0
2.8023e-07 -0
2.8047e-07 -0
2.807e-07 -0
2.8094e-07 -0
2.8117e-07 -0
2.814e-07 -0
2.8164e-07 -0
2.8187e-07 -0
2.8211e-07 -0
2.8234e-07 -0
2.8258e-07 -0
2.8282e-07 -0
2.8305e-07 -0
2.8329e-07 -0
2.8352e-07 -0
2.8376e-07 -0
2.84e-07 -0
2.8423e-07 -0
2.8447e-07 -0
2.8471e-07 -0
2.8495e-07 -0
2.8518e-07 -0
2.8542e-07 -0
2.8566e-07 -0
2.859e-07 -0
2.8614e-07 -0
2.8638e-07 -0
2.8661e-07 -0
2.8685e-07 -0
2.8709e-07 -0
2.8733e-07 -0
2.8757e-07 -0
2.8781e-07 -0
2.8805e-07 -0
2.8829e-07 -0
2.8853e-07 -0
2.8877e-07 -0
2.8901e-07 -0
2.8926e-07 -0
2.895e-07 -0
2.8974e-07 -0
2.8998e-07 -0
2.9022e-07 -0
2.9046e-07 -0
2.9071e-07 -0
2.9095e-07 -0
2.9119e-07 -0
2.9143e-07 -0
2.9168e-07 -0
2.9192e-07 -0
2.9216e-07 -0
2.9241e-07 -0
2.9265e-07 -0
2.929e-07 -0
2.9314e-07 -0
2.9339e-07 -0
2.9363e-07 -0
2.9388e-07 -0
2.9412e-07 -0
2.9437e-07 -0
2.9461e-07 -0
2.9486e-07 -0
2.951e-07 -0
2.9535e-07 -0
2.956e-07 -0
2.9584e-07 -0
2.9609e-07 -0
2.9634e-07 -0
2.9658e-07 -0
2.9683e-07 -0
2.9708e-07 -0
2.9733e-07 -0
2.9757e-07 -0
2.9782e-07 -0
2.9807e-07 -0
2.9832e-07 -0
2.9857e-07 -0
2.9882e-07 -0
2.9907e-07 -0
2.9932e-07 -0
2.9957e-07 -0
2.9982e-07 -0
3.0007e-07 -0
3.0032e-07 -0
3.0057e-07 -0
3.0082e-07 -0
3.0107e-07 -0
3.0132e-07 -0
3.0157e-07 -0
3.0182e-07 -0
3.0207e-07 -0
3.0233e-07 -0
3.0258e-07 -0
3.0283e-07 -0
3.0308e-07 -0
3.0334e-07 -0
3.0359e-07 -0
3.0384e-07 -0
3.041e-07 -0
3.0435e-07 -0
3.046e-07 -0
3.0486e-07 -0
3.0511e-07 -0
3.0537e-07 -0
3.0562e-07 -0
3.0588e-07 -0
3.0613e-07 -0
3.0639e-07 -0
3.0664e-07 -0
3.069e-07 -0
3.0715e-07 -0
3.0741e-07 -0
3.0767e-07 -0
3.0792e-07 -0
3.0818e-07 -0
3.0844e-07 -0
3.087e-07 -0
3.0895e-07 -0
3.0921e-07 -0
3.0947e-07 -0
3.0973e-07 -0
3.0998e-07 -0
3.1024e-07 -0
3.105e-07 -0
3.1076e-07 -0
3.1102e-07 -0
3.1128e-07 -0
3.1154e-07 -0
3.118e-07 -0
3.1206e-07 -0
3.1232e-07 -0
3.1258e-07 -0
3.1284e-07 -0
3.131e-07 -0
3.1336e-07 -0
3.1362e-07 -0
3.1389e-07 -0
3.1415e-07 -0
3.1441e-07 -0
3.1467e-07 -0
3.1494e-07 -0
3.152e-07 -0
3.1546e-07 -0
3.1572e-07 -0
3.1599e-07 -0
3.1625e-07 -0
3.1651e-07 -0
3.1678e-07 -0
3.1704e-07 -0
3.1731e-07 -0
3.1757e-07 -0
3.1784e-07 -0
3.181e-07 -0
3.1837e-07 -0
3.1863e-07 -0
3.189e-07 -0
3.1917e-07 -0
3.1943e-07 -0
3.197e-07 -0
3.1996e-07 -0
3.2023e-07 -0
3.205e-07 -0
3.2077e-07 -0
3.2103e-07 -0
3.213e-07 -0
3.2157e-07 -0
3.2184e-07 -0
3.2211e-07 -0
3.2238e-07 -0
3.2264e-07 -0
3.2291e-07 -0
3.2318e-07 -0
3.2345e-07 -0
3.2372e-07 -0
3.2399e-07 -0
3.2426e-07 -0
3.2453e-07 -0
3.248e-07 -0
3.2507e-07 -0
3.2535e-07 -0
3.2562e-07 -0
3.2589e-07 -0
3.2616e-07 -0
3.2643e-07 -0
3.2671e-07 -0
3.2698e-07 -0
3.2725e-07 -0
3.2752e-07 -0
3.278e-07 -0
3.2807e-07 -0
3.2834e-07 -0
3.2862e-07 -0
3.2889e-07 -0
3.2917e-07 -0
3.2944e-07 -0
3.2972e-07 -0
3.2999e-07 -0
3.3027e-07 -0
3.3054e-07 -0
3.3082e-07 -0
3.3109e-07 -0
3.3137e-07 -0
3.3165e-07 -0
3.3192e-07 -0
3.322e-07 -0
3.3248e-07 -0
3.3275e-07 -0
3.3303e-07 -0
3.3331e-07 -0
3.3359e-07 -0
3.3387e-07 -0
3.3414e-07 -0
3.3442e-07 -0
3.347e-07 -0
3.3498e-07 -0
3.3526e-07 -0
3.3554e-07 -0
3.3582e-07 -0
3.361e-07 -0
3.3638e-07 -0
3.3666e-07 -0
3.3694e-07 -0
3.3722e-07 -0
3.375e-07 -0
3.3779e-07 -0
3.3807e-07 -0
3.3835e-07 -0
3.3863e-07 -0
3.3891e-07 -0
3.392e-07 -0
3.3948e-07 -0
3.3976e-07 -0
3.4005e-07 -0
3.4033e-07 -0
3.4061e-07 -0
3.409e-07 -0
3.4118e-07 -0
3.4147e-07 -0
3.4175e-07 -0
3.4204e-07 -0
3.4232e-07 -0
3.4261e-07 -0
3.4289e-07 -0
3.4318e-07 -0
3.4347e-07 -0
3.4375e-07 -0
3.4404e-07 -0
3.4433e-07 -0
3.4461e-07 -0
3.449e-07 -0
3.4519e-07 -0
3.4548e-07 -0
3.4577e-07 -0
3.4605e-07 -0
3.4634e-07 -0
3.4663e-07 -0
3.4692e-07 -0
3.4721e-07 -0
3.475e-07 -0
3.4779e-07 -0
3.4808e-07 -0
3.4837e-07 -0
3.4866e-07 -0
3.4895e-07 -0
3.4924e-07 -0
3.4953e-07 -0
3.4983e-07 -0
3.5012e-07 -0
3.5041e-07 -0
3.507e-07 -0
3.5099e-07 -0
3.5129e-07 -0
3.5158e-07 -0
3.5187e-07 -0
3.5217e-07 -0
3.5246e-07 -0
3.5276e-07 -0
3.5305e-07 -0
3.5334e-07 -0
3.5364e-07 -0
3.5393e-07 -0
3.5423e-07 -0
3.5452e-07 -0
3.5482e-07 -0
3.5512e-07 -0
3.5541e-07 -0
3.5571e-07 -0
3.5601e-07 -0
3.563e-07 -0
3.566e-07 -0
3.569e-07 -0
3.572e-07 -0
3.5749e-07 -0
3.5779e-07 -0
3.5809e-07 -0
3.5839e-07 -0
3.5869e-07 -0
3.5899e-07 -0
3.5929e-07 -0
3.5959e-07 -0
3.5989e-07 -0
3.6019e-07 -0
3.6049e-07 -0
3.6079e-07 -0
3.6109e-07 -0
3.6139e-07 -0
3.6169e-07 -0
3.6199e-07 -0
3.623e-07 -0
3.626e-07 -0
3.629e-07 -0
3.632e-07 -0
3.6351e-07 -0
3.6381e-07 -0
3.6411e-07 -0
3.6442e-07 -0
3.6472e-07 -0
3.6502e-07 -0
3.6533e-07 -0
3.6563e-07 -0
3.6594e-07 -0
3.6624e-07 -0
3.6655e-07 -0
3.6686e-07 -0
3.6716e-07 -0
3.6747e-07 -0
3.6777e-07 -0
3.6808e-07 -0
3.6839e-07 -0
3.687e-07 -0
3.69e-07 -0
3.6931e-07 -0
3.6962e-07 -0
3.6993e-07 -0
3.7024e-07 -0
3.7054e-07 -0
3.7085e-07 -0
3.7116e-07 -0
3.7147e-07 -0
3.7178e-07 -0
3.7209e-07 -0
3.724e-07 -0
3.7271e-07 -0
3.7302e-07 -0
3.7334e-07 -0
3.7365e-07 -0
3.7396e-07 -0
3.7427e-07 -0
3.7458e-07 -0
3.749e-07 -0
3.7521e-07 -0
3.7552e-07 -0
3.7583e-07 -0
3.7615e-07 -0
3.7646e-07 -0
3.7678e-07 -0
3.7709e-07 -0
3.7741e-07 -0
3.7772e-07 -0
3.7804e-07 -0
3.7835e-07 -0
3.7867e-07 -0
3.7898e-07 -0
3.793e-07 -0
3.7961e-07 -0
3.7993e-07 -0
3.8025e-07 -0
3.8057e-07 -0
3.8088e-07 -0
3.812e-07 -0
3.8152e-07 -0
3.8184e-07 -0
3.8216e-07 -0
3.8247e-07 -0
3.8279e-07 -0
3.8311e-07 -0
3.8343e-07 -0
3.8375e-07 -0
3.8407e-07 -0
3.8439e-07 -0
3.8471e-07 -0
3.8503e-07 -0
3.8536e-07 1.1319e-39
3.8568e-07 4.2585e-38
3.86e-07 2.2879e-37
3.8632e-07 6.6273e-37
3.8664e-07 1.4955e-36
3.8697e-07 3.1589e-36
3.8729e-07 6.1381e-36
3.8761e-07 1.0924e-35
3.8793e-07 1.89e-35
3.8826e-07 3.7612e-35
3.8858e-07 3.4618e-33
3.8891e-07 1.1543e-32
3.8923e-07 2.2485e-32
3.8956e-07 3.7356e-32
3.8988e-07 6.6749e-32
3.9021e-07 1.0505e-31
3.9053e-07 1.2974e-31
3.9086e-07 1.4297e-31
3.9118e-07 1.2561e-31
3.9151e-07 1.0123e-31
3.9184e-07 7.1395e-32
3.9216e-07 6.8971e-32
3.9249e-07 8.6891e-32
3.9282e-07 1.0195e-31
3.9315e-07 9.7493e-32
3.9347e-07 6.3556e-32
3.938e-07 3.1853e-32
3.9413e-07 1.3855e-32
3.9446e-07 1.9606e-32
3.9479e-07 4.2994e-32
3.9512e-07 5.9673e-32
3.9545e-07 6.544e-32
3.9578e-07 8.4994e-32
3.9611e-07 1.8028e-31
3.9644e-07 3.5792e-31
3.9677e-07 5.869e-31
3.971e-07 1.0468e-30
3.9743e-07 1.092e-30
3.9776e-07 6.6917e-31
3.9809e-07 5.0655e-31
3.9843e-07 5.8097e-31
3.9876e-07 6.1455e-31
3.9909e-07 6.096e-31
3.9942e-07 6.1834e-31
3.9976e-07 6.3057e-31
4.0009e-07 5.2141e-31
4.0042e-07 4.2132e-31
4.0076e-07 3.625e-31
4.0109e-07 2.7641e-31
4.0143e-07 2.2241e-31
4.0176e-07 2.0643e-31
4.021e-07 1.8706e-31
4.0243e-07 1.4609e-31
4.0277e-07 1.1663e-31
4.031e-07 1.0637e-31
4.0344e-07 8.2131e-32
4.0378e-07 6.3966e-32
4.0411e-07 6.6267e-32
4.0445e-07 6.6463e-32
4.0479e-07 4.8727e-32
4.0513e-07 3.5073e-32
4.0546e-07 2.9045e-32
4.058e-07 1.7512e-32
4.0614e-07 1.3696e-32
4.0648e-07 1.4851e-32
4.0682e-07 6.0695e-33
4.0716e-07 3.715e-33
4.075e-07 6.9235e-33
4.0784e-07 6.9468e-33
4.0818e-07 8.7034e-33
4.0852e-07 1.2496e-32
4.0886e-07 1.1085e-32
4.092e-07 4.2616e-33
4.0954e-07 3.5485e-35
4.0988e-07 1.1565e-35
4.1023e-07 1.1462e-35
4.1057e-07 2.0866e-35
4.1091e-07 2.4924e-33
4.1125e-07 4.9118e-33
4.116e-07 2.1252e-33
4.1194e-07 7.2477e-33
4.1228e-07 2.3277e-32
4.1263e-07 4.0481e-32
4.1297e-07 4.8076e-32
4.1332e-07 4.7694e-32
4.1366e-07 4.3572e-32
4.1401e-07 4.9429e-32
4.1435e-07 8.5265e-32
4.147e-07 1.5487e-31
4.1504e-07 2.6068e-31
4.1539e-07 3.1814e-31
4.1574e-07 3.6708e-31
4.1608e-07 4.937e-31
4.1643e-07 7.1571e-31
4.1678e-07 7.8209e-31
4.1712e-07 4.9448e-31
4.1747e-07 2.7807e-31
4.1782e-07 2.9463e-31
4.1817e-07 3.435e-31
4.1852e-07 3.1945e-31
4.1887e-07 2.9426e-31
4.1922e-07 2.7032e-31
4.1957e-07 2.3473e-31
4.1992e-07 1.6726e-31
4.2027e-07 1.1721e-31
4.2062e-07 9.2392e-32
4.2097e-07 6.8982e-32
4.2132e-07 5.659e-32
4.2167e-07 4.3611e-32
4.2202e-07 3.3005e-32
4.2238e-07 2.4071e-32
4.2273e-07 1.494e-32
4.2308e-07 1.0419e-32
4.2343e-07 6.9073e-33
4.2379e-07 3.8564e-33
4.2414e-07 3.1871e-33
4.2449e-07 1.808e-32
4.2485e-07 5.5343e-32
4.252e-07 7.9621e-32
4.2556e-07 1.0099e-31
4.2591e-07 1.6531e-31
4.2627e-07 1.9998e-31
4.2662e-07 1.331e-31
4.2698e-07 8.1699e-32
4.2733e-07 9.9347e-32
4.2769e-07 1.1038e-31
4.2805e-07 9.1557e-32
4.2841e-07 8.352e-32
4.2876e-07 9.4448e-32
4.2912e-07 9.7984e-32
4.2948e-07 7.5918e-32
4.2984e-07 5.291e-32
4.302e-07 4.8123e-32
4.3055e-07 3.1047e-32
4.3091e-07 1.2851e-32
4.3127e-07 9.3836e-33
4.3163e-07 8.7106e-33
4.3199e-07 6.4815e-33
4.3235e-07 4.0424e-33
4.3271e-07 2.6948e-33
4.3307e-07 1.5748e-33
4.3344e-07 3.8835e-34
4.338e-07 6.4747e-36
4.3416e-07 5.4472e-36
4.3452e-07 7.3008e-36
4.3488e-07 3.1381e-35
4.3525e-07 3.0748e-33
4.3561e-07 8.2278e-33
4.3597e-07 8.5812e-33
4.3634e-07 3.8341e-33
4.367e-07 6.2563e-34
4.3707e-07 9.3567e-35
4.3743e-07 5.526e-33
4.3779e-07 1.5304e-32
4.3816e-07 2.5455e-32
4.3853e-07 4.8791e-32
4.3889e-07 1.2413e-31
4.3926e-07 1.7744e-31
4.3962e-07 2.0993e-31
4.3999e-07 2.8681e-31
4.4036e-07 3.5687e-31
4.4073e-07 4.3663e-31
4.4109e-07 7.6143e-31
4.4146e-07 1.3005e-30
4.4183e-07 1.5943e-30
4.422e-07 2.3075e-30
4.4257e-07 4.1286e-30
4.4294e-07 4.6435e-30
4.4331e-07 3.1831e-30
4.4368e-07 1.7774e-30
4.4405e-07 1.7015e-30
4.4442e-07 2.1831e-30
4.4479e-07 2.5522e-30
4.4516e-07 2.4891e-30
4.4553e-07 2.4414e-30
4.459e-07 2.3978e-30
4.4627e-07 1.922e-30
4.4664e-07 1.4975e-30
4.4702e-07 1.3257e-30
4.4739e-07 1.1397e-30
4.4776e-07 8.9843e-31
4.4814e-07 6.6443e-31
4.4851e-07 5.3148e-31
4.4889e-07 4.4003e-31
4.4926e-07 2.9634e-31
4.4963e-07 2.1043e-31
4.5001e-07 1.484e-31
4.5038e-07 1.2278e-31
4.5076e-07 1.0401e-31
4.5114e-07 6.5299e-32
4.5151e-07 3.4331e-32
4.5189e-07 2.7253e-32
4.5227e-07 4.1386e-32
4.5264e-07 7.3313e-32
4.5302e-07 1.0102e-31
4.534e-07 8.1226e-32
4.5378e-07 4.5286e-32
4.5416e-07 5.2325e-32
4.5454e-07 8.3474e-32
4.5491e-07 8.7115e-32
4.5529e-07 7.852e-32
4.5567e-07 8.444e-32
4.5605e-07 9.1928e-32
4.5643e-07 1.1254e-31
4.5682e-07 1.2973e-31
4.572e-07 9.3883e-32
4.5758e-07 5.3167e-32
4.5796e-07 6.0592e-32
4.5834e-07 7.0534e-32
4.5872e-07 6.5423e-32
4.5911e-07 5.7054e-32
4.5949e-07 4.5675e-32
4.5987e-07 4.1147e-32
4.6026e-07 3.6175e-32
4.6064e-07 2.27e-32
4.6102e-07 1.364e-32
4.6141e-07 8.9223e-33
4.6179e-07 3.5361e-33
4.6218e-07 4.5379e-33
4.6256e-07 7.7476e-33
4.6295e-07 4.9154e-33
4.6334e-07 1.7862e-33
4.6372e-07 7.3999e-33
4.6411e-07 1.3226e-32
4.645e-07 1.1909e-32
4.6489e-07 1.114e-32
4.6527e-07 1.9698e-32
4.6566e-07 5.0137e-32
4.6605e-07 1.2465e-31
4.6644e-07 2.8332e-31
4.6683e-07 5.502e-31
4.6722e-07 7.8413e-31
4.6761e-07 7.601e-31
4.68e-07 6.2438e-31
4.6839e-07 7.5424e-31
4.6878e-07 1.0395e-30
4.6917e-07 1.3562e-30
4.6956e-07 1.8733e-30
4.6995e-07 1.9428e-30
4.7034e-07 1.4438e-30
4.7074e-07 1.2016e-30
4.7113e-07 1.213e-30
4.7152e-07 9.7795e-31
4.7192e-07 8.7297e-31
4.7231e-07 1.0179e-30
4.727e-07 1.0762e-30
4.731e-07 1.0352e-30
4.7349e-07 8.8164e-31
4.7389e-07 6.4896e-31
4.7428e-07 5.8722e-31
4.7468e-07 5.151e-31
4.7507e-07 3.5499e-31
4.7547e-07 2.6699e-31
4.7587e-07 2.3537e-31
4.7626e-07 1.9984e-31
4.7666e-07 1.666e-31
4.7706e-07 1.2022e-31
4.7746e-07 7.9078e-32
4.7786e-07 5.4686e-32
4.7825e-07 3.679e-32
4.7865e-07 2.5419e-32
4.7905e-07 1.5185e-32
4.7945e-07 4.5e-33
4.7985e-07 8.286e-34
4.8025e-07 5.0243e-34
4.8065e-07 1.4478e-34
4.8105e-07 2.1056e-33
4.8146e-07 5.9331e-33
4.8186e-07 1.2359e-32
4.8226e-07 2.1483e-32
4.8266e-07 3.6665e-32
4.8306e-07 8.4364e-32
4.8347e-07 1.7572e-31
4.8387e-07 3.1874e-31
4.8427e-07 6.271e-31
4.8468e-07 1.2217e-30
4.8508e-07 1.7551e-30
4.8549e-07 1.7097e-30
4.8589e-07 1.2583e-30
4.863e-07 9.2488e-31
4.867e-07 1.0263e-30
4.8711e-07 1.2426e-30
4.8752e-07 1.2347e-30
4.8792e-07 1.1759e-30
4.8833e-07 1.0333e-30
4.8874e-07 1.1131e-30
4.8914e-07 1.2924e-30
4.8955e-07 1.083e-30
4.8996e-07 7.7511e-31
4.9037e-07 6.9031e-31
4.9078e-07 6.5844e-31
4.9119e-07 5.9431e-31
4.916e-07 5.1133e-31
4.9201e-07 3.9079e-31
4.9242e-07 3.5977e-31
4.9283e-07 2.971e-31
4.9324e-07 2.1183e-31
4.9365e-07 1.4973e-31
4.9406e-07 1.1441e-31
4.9448e-07 9.1328e-32
4.9489e-07 6.7294e-32
4.953e-07 4.7704e-32
4.9571e-07 3.8197e-32
4.9613e-07 3.5277e-32
4.9654e-07 3.1085e-32
4.9696e-07 4.5146e-32
4.9737e-07 7.3642e-32
4.9779e-07 1.4739e-31
4.982e-07 3.1283e-31
4.9862e-07 4.8632e-31
4.9903e-07 6.5588e-31
4.9945e-07 8.6961e-31
4.9986e-07 1.1585e-30
5.0028e-07 1.4977e-30
5.007e-07 1.8067e-30
5.0112e-07 2.5964e-30
5.0154e-07 4.2579e-30
5.0195e-07 5.1551e-30
5.0237e-07 5.9056e-30
5.0279e-07 7.7371e-30
5.0321e-07 1.3574e-29
5.0363e-07 2.1908e-29
5.0405e-07 2.4432e-29
5.0447e-07 1.9057e-29
5.0489e-07 1.1261e-29
5.0531e-07 9.1311e-30
5.0573e-07 1.2115e-29
5.0616e-07 1.237e-29
5.0658e-07 1.1508e-29
5.07e-07 1.3129e-29
5.0742e-07 1.4318e-29
5.0785e-07 1.3016e-29
5.0827e-07 1.0824e-29
5.087e-07 9.013e-30
5.0912e-07 7.8158e-30
5.0954e-07 7.3469e-30
5.0997e-07 6.1655e-30
5.104e-07 4.6478e-30
5.1082e-07 3.6398e-30
5.1125e-07 3.0443e-30
5.1167e-07 2.383e-30
5.121e-07 1.938e-30
5.1253e-07 1.6289e-30
5.1296e-07 1.1773e-30
5.1338e-07 8.4617e-31
5.1381e-07 5.7646e-31
5.1424e-07 4.0884e-31
5.1467e-07 3.4673e-31
5.151e-07 3.0461e-31
5.1553e-07 2.6677e-31
5.1596e-07 2.2171e-31
5.1639e-07 2.0502e-31
5.1682e-07 1.8509e-31
5.1725e-07 1.5518e-31
5.1768e-07 1.4105e-31
5.1811e-07 1.249e-31
5.1855e-07 1.1404e-31
5.1898e-07 1.0901e-31
5.1941e-07 1.0306e-31
5.1984e-07 8.5989e-32
5.2028e-07 7.0591e-32
5.2071e-07 6.5201e-32
5.2115e-07 6.641e-32
5.2158e-07 8.3495e-32
5.2202e-07 1.1154e-31
5.2245e-07 1.3535e-31
5.2289e-07 2.7453e-31
5.2332e-07 6.0825e-31
5.2376e-07 1.2611e-30
5.242e-07 1.9585e-30
5.2464e-07 2.0838e-30
5.2507e-07 1.6627e-30
5.2551e-07 1.0571e-30
5.2595e-07 5.4606e-31
5.2639e-07 7.2164e-31
5.2683e-07 1.3315e-30
5.2727e-07 1.3782e-30
5.2771e-07 9.374e-31
5.2815e-07 7.4931e-31
5.2859e-07 9.0137e-31
5.2903e-07 9.9706e-31
5.2947e-07 9.5375e-31
5.2991e-07 9.9322e-31
5.3035e-07 1.0106e-30
5.308e-07 9.3936e-31
5.3124e-07 7.546e-31
5.3168e-07 6.2639e-31
5.3213e-07 5.6088e-31
5.3257e-07 5.1767e-31
5.3301e-07 4.0721e-31
5.3346e-07 2.9865e-31
5.339e-07 2.6711e-31
5.3435e-07 2.6282e-31
5.3479e-07 3.2586e-31
5.3524e-07 3.9345e-31
5.3569e-07 4.3544e-31
5.3613e-07 4.7748e-31
5.3658e-07 6.138e-31
5.3703e-07 7.1515e-31
5.3748e-07 8.2198e-31
5.3793e-07 1.0697e-30
5.3837e-07 1.3655e-30
5.3882e-07 1.5988e-30
5.3927e-07 2.2295e-30
5.3972e-07 3.1814e-30
5.4017e-07 4.3371e-30
5.4062e-07 7.1025e-30
5.4107e-07 1.0235e-29
5.4153e-07 1.0857e-29
5.4198e-07 9.3787e-30
5.4243e-07 7.6035e-30
5.4288e-07 6.1994e-30
5.4334e-07 7.3486e-30
5.4379e-07 8.5854e-30
5.4424e-07 7.1021e-30
5.447e-07 6.1708e-30
5.4515e-07 6.6458e-30
5.4561e-07 7.6475e-30
5.4606e-07 9.6273e-30
5.4652e-07 9.4352e-30
5.4697e-07 6.8932e-30
5.4743e-07 4.9624e-30
5.4788e-07 4.2637e-30
5.4834e-07 3.5367e-30
5.488e-07 2.9631e-30
5.4926e-07 3.0301e-30
5.4972e-07 3.0813e-30
5.5017e-07 2.5964e-30
5.5063e-07 1.9887e-30
5.5109e-07 1.7661e-30
5.5155e-07 1.3532e-30
5.5201e-07 9.3427e-31
5.5247e-07 7.3929e-31
5.5293e-07 5.8846e-31
5.5339e-07 4.4279e-31
5.5386e-07 3.473e-31
5.5432e-07 2.9692e-31
5.5478e-07 2.8395e-31
5.5524e-07 2.1743e-31
5.5571e-07 1.4847e-31
5.5617e-07 8.5438e-32
5.5663e-07 4.8032e-32
5.571e-07 6.9549e-32
5.5756e-07 1.1701e-31
5.5803e-07 1.6894e-31
5.5849e-07 2.3061e-31
5.5896e-07 2.7513e-31
5.5943e-07 3.1302e-31
5.5989e-07 4.1034e-31
5.6036e-07 4.9014e-31
5.6083e-07 5.4501e-31
5.613e-07 5.38e-31
5.6176e-07 5.3241e-31
5.6223e-07 6.5194e-31
5.627e-07 7.4079e-31
5.6317e-07 5.7726e-31
5.6364e-07 4.604e-31
5.6411e-07 5.6464e-31
5.6458e-07 6.554e-31
5.6505e-07 6.9219e-31
5.6552e-07 7.0323e-31
5.66e-07 9.4482e-31
5.6647e-07 1.5527e-30
5.6694e-07 2.3885e-30
5.6741e-07 3.9275e-30
5.6789e-07 7.8022e-30
5.6836e-07 1.4189e-29
5.6883e-07 1.9653e-29
5.6931e-07 2.0239e-29
5.6978e-07 1.8243e-29
5.7026e-07 1.3758e-29
5.7074e-07 7.9626e-30
5.7121e-07 6.1308e-30
5.7169e-07 9.9087e-30
5.7216e-07 1.3349e-29
5.7264e-07 1.2886e-29
5.7312e-07 1.1674e-29
5.736e-07 1.0399e-29
5.7408e-07 1.1563e-29
5.7456e-07 1.2581e-29
5.7503e-07 1.0454e-29
5.7551e-07 9.2947e-30
5.7599e-07 8.752e-30
5.7647e-07 7.7617e-30
5.7696e-07 7.8314e-30
5.7744e-07 7.8012e-30
5.7792e-07 6.0319e-30
5.784e-07 4.4234e-30
5.7888e-07 3.7304e-30
5.7937e-07 3.2827e-30
5.7985e-07 2.8573e-30
5.8033e-07 2.6325e-30
5.8082e-07 2.5502e-30
5.813e-07 2.6132e-30
5.8179e-07 2.7482e-30
5.8227e-07 2.9385e-30
5.8276e-07 3.0776e-30
5.8324e-07 3.4846e-30
5.8373e-07 3.856e-30
5.8422e-07 4.1117e-30
5.8471e-07 4.4683e-30
5.8519e-07 4.8358e-30
5.8568e-07 6.1951e-30
5.8617e-07 9.0752e-30
5.8666e-07 1.292e-29
5.8715e-07 1.8195e-29
5.8764e-07 3.0893e-29
5.8813e-07 5.2514e-29
5.8862e-07 8.0232e-29
5.8911e-07 9.4503e-29
5.896e-07 9.5519e-29
5.9009e-07 9.2255e-29
5.9059e-07 7.9244e-29
5.9108e-07 7.032e-29
5.9157e-07 7.8132e-29
5.9206e-07 9.0487e-29
5.9256e-07 7.9959e-29
5.9305e-07 5.4826e-29
5.9355e-07 4.6484e-29
5.9404e-07 6.8869e-29
5.9454e-07 9.3821e-29
5.9503e-07 8.3931e-29
5.9553e-07 5.8739e-29
5.9603e-07 4.9396e-29
5.9652e-07 4.8358e-29
5.9702e-07 5.172e-29
5.9752e-07 4.7311e-29
5.9802e-07 3.7942e-29
5.9852e-07 3.2038e-29
5.9902e-07 2.9723e-29
5.9952e-07 2.6513e-29
6.0002e-07 2.0546e-29
6.0052e-07 1.5486e-29
6.0102e-07 1.1494e-29
6.0152e-07 9.6989e-30
6.0202e-07 8.0851e-30
6.0252e-07 5.9623e-30
6.0303e-07 4.8008e-30
6.0353e-07 3.4814e-30
6.0403e-07 2.3881e-30
6.0454e-07 1.9875e-30
6.0504e-07 1.5307e-30
6.0555e-07 1.206e-30
6.0605e-07 9.6954e-31
6.0656e-07 6.8262e-31
6.0706e-07 5.1191e-31
6.0757e-07 4.4774e-31
6.0808e-07 3.6062e-31
6.0858e-07 2.9701e-31
6.0909e-07 2.4267e-31
6.096e-07 1.8872e-31
6.1011e-07 1.603e-31
6.1062e-07 1.3046e-31
6.1113e-07 1.0263e-31
6.1164e-07 9.0841e-32
6.1215e-07 8.4439e-32
6.1266e-07 7.3435e-32
6.1317e-07 5.5869e-32
6.1368e-07 4.9953e-32
6.1419e-07 5.4333e-32
6.147e-07 6.4292e-32
6.1522e-07 6.8625e-32
6.1573e-07 6.2896e-32
6.1624e-07 6.9696e-32
6.1676e-07 8.153e-32
6.1727e-07 8.4652e-32
6.1779e-07 1.0271e-31
6.183e-07 1.3561e-31
6.1882e-07 1.4433e-31
6.1933e-07 1.4594e-31
6.1985e-07 1.5935e-31
6.2037e-07 1.6856e-31
6.2089e-07 1.6801e-31
6.214e-07 1.8657e-31
6.2192e-07 2.1287e-31
6.2244e-07 2.4731e-31
6.2296e-07 2.9354e-31
6.2348e-07 3.7837e-31
6.24e-07 4.7546e-31
6.2452e-07 7.8822e-31
6.2504e-07 1.3596e-30
6.2556e-07 2.3296e-30
6.2609e-07 4.1408e-30
6.2661e-07 7.0448e-30
6.2713e-07 1.0518e-29
6.2765e-07 1.3464e-29
6.2818e-07 1.5064e-29
6.287e-07 1.4729e-29
6.2923e-07 1.3047e-29
6.2975e-07 9.7061e-30
6.3028e-07 5.1546e-30
6.308e-07 2.9305e-30
6.3133e-07 6.8982e-30
6.3185e-07 1.286e-29
6.3238e-07 1.3312e-29
6.3291e-07 9.641e-30
6.3344e-07 7.3357e-30
6.3397e-07 7.1027e-30
6.3449e-07 8.0855e-30
6.3502e-07 8.1697e-30
6.3555e-07 7.1422e-30
6.3608e-07 6.6651e-30
6.3661e-07 6.4484e-30
6.3715e-07 6.6247e-30
6.3768e-07 6.0099e-30
6.3821e-07 5.2227e-30
6.3874e-07 5.3281e-30
6.3927e-07 5.5648e-30
6.3981e-07 5.3514e-30
6.4034e-07 5.4838e-30
6.4088e-07 5.7789e-30
6.4141e-07 5.5724e-30
6.4195e-07 5.484e-30
6.4248e-07 5.5192e-30
6.4302e-07 6.2075e-30
6.4355e-07 7.3751e-30
6.4409e-07 8.6326e-30
6.4463e-07 1.0619e-29
6.4516e-07 1.409e-29
6.457e-07 2.2772e-29
6.4624e-07 3.6454e-29
6.4678e-07 5.1499e-29
6.4732e-07 6.9186e-29
6.4786e-07 8.1953e-29
6.484e-07 7.6551e-29
6.4894e-07 6.5872e-29
6.4948e-07 5.4335e-29
6.5003e-07 3.6146e-29
6.5057e-07 2.4763e-29
6.5111e-07 4.1371e-29
6.5165e-07 6.9188e-29
6.522e-07 6.1898e-29
6.5274e-07 3.5978e-29
6.5329e-07 2.8135e-29
6.5383e-07 2.9993e-29
6.5438e-07 3.5245e-29
6.5492e-07 4.4627e-29
6.5547e-07 4.5502e-29
6.5601e-07 3.9532e-29
6.5656e-07 3.5276e-29
6.5711e-07 3.472e-29
6.5766e-07 3.1106e-29
6.5821e-07 2.474e-29
6.5876e-07 2.0163e-29
6.5931e-07 1.5241e-29
6.5986e-07 1.2876e-29
6.6041e-07 1.1692e-29
6.6096e-07 7.9801e-30
6.6151e-07 5.6323e-30
6.6206e-07 4.4793e-30
6.6261e-07 4.1112e-30
6.6317e-07 4.2679e-30
6.6372e-07 3.738e-30
6.6427e-07 3.7506e-30
6.6483e-07 3.4171e-30
6.6538e-07 2.6493e-30
6.6594e-07 2.3138e-30
6.6649e-07 2.1822e-30
6.6705e-07 1.7018e-30
6.676e-07 1.2271e-30
6.6816e-07 1.0212e-30
6.6872e-07 8.9606e-31
6.6928e-07 6.6746e-31
6.6983e-07 4.6194e-31
6.7039e-07 3.7361e-31
6.7095e-07 2.7422e-31
6.7151e-07 1.9097e-31
6.7207e-07 1.8324e-31
6.7263e-07 1.7741e-31
6.7319e-07 1.2032e-31
6.7376e-07 9.7072e-32
6.7432e-07 1.2049e-31
6.7488e-07 1.172e-31
6.7544e-07 1.2479e-31
6.7601e-07 1.7247e-31
6.7657e-07 2.4505e-31
6.7714e-07 2.8236e-31
6.777e-07 3.4525e-31
6.7827e-07 4.822e-31
6.7883e-07 5.7979e-31
6.794e-07 6.478e-31
6.7996e-07 9.671e-31
6.8053e-07 1.2493e-30
6.811e-07 1.3566e-30
6.8167e-07 1.7537e-30
6.8224e-07 2.4093e-30
6.8281e-07 2.687e-30
6.8338e-07 2.5883e-30
6.8395e-07 3.2095e-30
6.8452e-07 3.6978e-30
6.8509e-07 3.3338e-30
6.8566e-07 3.3853e-30
6.8623e-07 4.4624e-30
6.868e-07 5.6037e-30
6.8738e-07 4.9458e-30
6.8795e-07 3.1176e-30
6.8852e-07 2.7405e-30
6.891e-07 3.3571e-30
6.8967e-07 4.4567e-30
6.9025e-07 7.3099e-30
6.9082e-07 1.2149e-29
6.914e-07 1.8569e-29
6.9198e-07 3.5113e-29
6.9255e-07 7.2716e-29
6.9313e-07 1.1056e-28
6.9371e-07 1.3685e-28
6.9429e-07 1.5271e-28
6.9487e-07 1.3466e-28
6.9545e-07 1.163e-28
6.9603e-07 1.0325e-28
6.9661e-07 6.5859e-29
6.9719e-07 3.6923e-29
6.9777e-07 3.4367e-29
6.9835e-07 5.9433e-29
6.9894e-07 9.3814e-29
6.9952e-07 1.0595e-28
7.001e-07 1.0292e-28
7.0069e-07 1.0183e-28
7.0127e-07 9.9772e-29
7.0186e-07 1.0017e-28
7.0244e-07 9.8785e-29
7.0303e-07 8.0974e-29
7.0361e-07 6.1977e-29
7.042e-07 6.1661e-29
7.0479e-07 6.4738e-29
7.0538e-07 6.7775e-29
7.0596e-07 6.6257e-29
7.0655e-07 5.5894e-29
7.0714e-07 4.937e-29
7.0773e-07 4.7894e-29
7.0832e-07 4.4717e-29
7.0891e-07 3.9403e-29
7.0951e-07 3.819e-29
7.101e-07 3.9541e-29
7.1069e-07 3.7236e-29
7.1128e-07 3.2023e-29
7.1188e-07 2.8568e-29
7.1247e-07 3.1144e-29
7.1306e-07 3.5647e-29
7.1366e-07 3.5708e-29
7.1425e-07 4.2018e-29
7.1485e-07 5.4366e-29
7.1545e-07 6.5667e-29
7.1604e-07 9.9155e-29
7.1664e-07 1.9861e-28
7.1724e-07 3.3265e-28
7.1784e-07 4.0292e-28
7.1844e-07 4.0534e-28
7.1904e-07 4.2879e-28
7.1964e-07 4.4357e-28
7.2024e-07 4.2226e-28
7.2084e-07 3.0739e-28
7.2144e-07 1.7516e-28
7.2204e-07 1.2923e-28
7.2264e-07 1.5819e-28
7.2324e-07 2.4397e-28
7.2385e-07 3.2989e-28
7.2445e-07 3.3759e-28
7.2506e-07 3.2533e-28
7.2566e-07 3.2507e-28
7.2627e-07 3.0876e-28
7.2687e-07 2.9351e-28
7.2748e-07 3.183e-28
7.2809e-07 2.9933e-28
7.2869e-07 2.6082e-28
7.293e-07 2.8152e-28
7.2991e-07 2.8085e-28
7.3052e-07 2.8255e-28
7.3113e-07 2.7926e-28
7.3174e-07 2.3304e-28
7.3235e-07 1.6669e-28
7.3296e-07 1.3299e-28
7.3357e-07 1.153e-28
7.3418e-07 8.9955e-29
7.348e-07 8.9635e-29
7.3541e-07 9.7171e-29
7.3602e-07 9.9488e-29
7.3664e-07 1.0324e-28
7.3725e-07 8.6004e-29
7.3787e-07 6.6963e-29
7.3848e-07 6.4319e-29
7.391e-07 6.0019e-29
7.3971e-07 4.8631e-29
7.4033e-07 3.5836e-29
7.4095e-07 2.7505e-29
7.4157e-07 2.4241e-29
7.4218e-07 2.0676e-29
7.428e-07 1.6762e-29
7.4342e-07 1.0846e-29
7.4404e-07 8.0819e-30
7.4466e-07 7.1693e-30
7.4529e-07 5.8038e-30
7.4591e-07 4.9766e-30
7.4653e-07 3.9044e-30
7.4715e-07 3.3692e-30
7.4778e-07 2.8346e-30
7.484e-07 2.1821e-30
7.4902e-07 1.8822e-30
7.4965e-07 1.8114e-30
7.5027e-07 1.8531e-30
7.509e-07 1.7334e-30
7.5153e-07 1.3917e-30
7.5215e-07 1.0732e-30
7.5278e-07 7.8638e-31
7.5341e-07 6.693e-31
7.5404e-07 7.2858e-31
7.5467e-07 6.0836e-31
7.553e-07 5.3002e-31
7.5593e-07 5.0216e-31
7.5656e-07 3.9211e-31
7.5719e-07 4.1213e-31
7.5782e-07 6.2522e-31
7.5845e-07 6.898e-31
7.5908e-07 5.2449e-31
7.5972e-07 3.74e-31
7.6035e-07 3.7852e-31
7.6099e-07 3.2615e-31
7.6162e-07 2.7331e-31
7.6226e-07 2.0656e-31
7.6289e-07 1.462e-31
7.6353e-07 1.4599e-31
7.6417e-07 1.3157e-31
7.648e-07 8.4297e-32
7.6544e-07 6.1916e-32
7.6608e-07 5.3756e-32
7.6672e-07 4.3566e-32
7.6736e-07 3.5277e-32
7.68e-07 3.212e-32
7.6864e-07 3.6616e-32
7.6928e-07 4.3998e-32
7.6992e-07 5.5425e-32
7.7056e-07 6.3665e-32
7.7121e-07 9.5162e-32
7.7185e-07 1.328e-31
7.7249e-07 1.6785e-31
7.7314e-07 1.9591e-31
7.7378e-07 2.1915e-31
7.7443e-07 2.4702e-31
7.7508e-07 2.9599e-31
7.7572e-07 3.5819e-31
7.7637e-07 3.1173e-31
7.7702e-07 3.3545e-31
7.7766e-07 4.1977e-31
7.7831e-07 4.9456e-31
7.7896e-07 7.0719e-31
7.7961e-07 9.4284e-31
7.8026e-07 9.9072e-31
7.8091e-07 1.0385e-30
7.8157e-07 1.3117e-30
7.8222e-07 1.7923e-30
7.8287e-07 2.2177e-30
7.8352e-07 3.6972e-30
7.8418e-07 6.3022e-30
7.8483e-07 8.3945e-30
7.8549e-07 9.7717e-30
7.8614e-07 1.6984e-29
7.868e-07 2.9499e-29
7.8745e-07 3.5529e-29
7.8811e-07 3.8775e-29
7.8877e-07 5.2003e-29
7.8943e-07 6.9269e-29
7.9008e-07 6.9128e-29
7.9074e-07 5.9254e-29
7.914e-07 5.4804e-29
7.9206e-07 5.3421e-29
7.9272e-07 5.0084e-29
7.9339e-07 3.5841e-29
7.9405e-07 1.9633e-29
7.9471e-07 1.9286e-29
7.9537e-07 3.9519e-29
7.9604e-07 6.9151e-29
7.967e-07 7.591e-29
7.9736e-07 5.2628e-29
7.9803e-07 4.1038e-29
7.987e-07 4.2176e-29
7.9936e-07 4.7807e-29
8.0003e-07 5.9903e-29
8.007e-07 6.9294e-29
8.0136e-07 7.0519e-29
8.0203e-07 7.0387e-29
8.027e-07 7.3122e-29
8.0337e-07 6.9463e-29
8.0404e-07 6.4511e-29
8.0471e-07 5.62e-29
8.0538e-07 3.8328e-29
8.0606e-07 3.2063e-29
8.0673e-07 3.4856e-29
8.074e-07 3.4682e-29
8.0807e-07 4.0022e-29
8.0875e-07 5.1285e-29
8.0942e-07 6.2108e-29
8.101e-07 7.4486e-29
8.1077e-07 9.4481e-29
8.1145e-07 1.165e-28
8.1213e-07 1.442e-28
8.1281e-07 1.9197e-28
8.1348e-07 2.6209e-28
8.1416e-07 3.0919e-28
8.1484e-07 3.5676e-28
8.1552e-07 3.8681e-28
8.162e-07 4.0579e-28
8.1688e-07 4.001e-28
8.1756e-07 3.6739e-28
8.1825e-07 3.5821e-28
8.1893e-07 3.1875e-28
8.1961e-07 2.7954e-28
8.203e-07 2.2022e-28
8.2098e-07 1.425e-28
8.2166e-07 1.5434e-28
8.2235e-07 3.2011e-28
8.2304e-07 5.033e-28
8.2372e-07 3.9739e-28
8.2441e-07 2.0628e-28
8.251e-07 1.4498e-28
8.2579e-07 1.6557e-28
8.2647e-07 1.6666e-28
8.2716e-07 1.8931e-28
8.2785e-07 2.5494e-28
8.2854e-07 2.6448e-28
8.2924e-07 2.3729e-28
8.2993e-07 2.191e-28
8.3062e-07 1.9901e-28
8.3131e-07 1.968e-28
8.3201e-07 1.9941e-28
8.327e-07 1.794e-28
8.334e-07 1.7018e-28
8.3409e-07 1.5341e-28
8.3479e-07 1.1555e-28
8.3548e-07 1.0986e-28
8.3618e-07 1.0992e-28
8.3688e-07 9.5792e-29
8.3758e-07 8.7527e-29
8.3827e-07 7.4263e-29
8.3897e-07 6.1333e-29
8.3967e-07 5.1586e-29
8.4037e-07 5.0019e-29
8.4107e-07 5.576e-29
8.4178e-07 4.6014e-29
8.4248e-07 2.9325e-29
8.4318e-07 2.973e-29
8.4388e-07 3.257e-29
8.4459e-07 2.4899e-29
8.4529e-07 1.6031e-29
8.46e-07 1.3854e-29
8.467e-07 1.1249e-29
8.4741e-07 1.079e-29
8.4812e-07 1.4256e-29
8.4883e-07 1.5072e-29
8.4953e-07 1.388e-29
8.5024e-07 1.4748e-29
8.5095e-07 1.8842e-29
8.5166e-07 2.2217e-29
8.5237e-07 1.8204e-29
8.5308e-07 1.3898e-29
8.5379e-07 1.5204e-29
8.5451e-07 1.5163e-29
8.5522e-07 1.2276e-29
8.5593e-07 9.6334e-30
8.5665e-07 8.4799e-30
8.5736e-07 9.0712e-30
8.5808e-07 7.1464e-30
8.5879e-07 5.3696e-30
8.5951e-07 5.069e-30
8.6023e-07 3.5739e-30
8.6094e-07 2.6115e-30
8.6166e-07 2.2048e-30
8.6238e-07 1.9687e-30
8.631e-07 1.6116e-30
8.6382e-07 1.0515e-30
8.6454e-07 8.7089e-31
8.6526e-07 7.4241e-31
8.6598e-07 5.135e-31
8.6671e-07 4.1085e-31
8.6743e-07 4.6329e-31
8.6815e-07 4.5385e-31
8.6888e-07 4.1997e-31
8.696e-07 3.8516e-31
8.7033e-07 4.5969e-31
8.7105e-07 5.7428e-31
8.7178e-07 4.8567e-31
8.7251e-07 4.3651e-31
8.7324e-07 7.3226e-31
8.7396e-07 1.136e-30
8.7469e-07 1.2575e-30
8.7542e-07 1.5394e-30
8.7615e-07 2.0455e-30
8.7688e-07 1.9206e-30
8.7762e-07 3.4013e-30
8.7835e-07 5.3401e-30
8.7908e-07 4.9427e-30
8.7981e-07 4.6808e-30
8.8055e-07 6.5459e-30
8.8128e-07 8.4094e-30
8.8202e-07 9.6128e-30
8.8275e-07 9.8585e-30
8.8349e-07 9.1183e-30
8.8423e-07 8.0911e-30
8.8496e-07 1.0492e-29
8.857e-07 1.7528e-29
8.8644e-07 1.8831e-29
8.8718e-07 1.7052e-29
8.8792e-07 1.8796e-29
8.8866e-07 1.6578e-29
8.894e-07 1.5684e-29
8.9015e-07 2.0798e-29
8.9089e-07 2.4222e-29
8.9163e-07 3.0482e-29
8.9237e-07 6.058e-29
8.9312e-07 1.0576e-28
8.9386e-07 1.335e-28
8.9461e-07 1.8516e-28
8.9536e-07 2.5879e-28
8.961e-07 3.1998e-28
8.9685e-07 3.7786e-28
8.976e-07 3.7932e-28
8.9835e-07 4.2545e-28
8.991e-07 5.1161e-28
8.9985e-07 4.5932e-28
9.006e-07 4.3584e-28
9.0135e-07 4.3662e-28
9.021e-07 4.0873e-28
9.0285e-07 3.3615e-28
9.0361e-07 2.2267e-28
9.0436e-07 1.7427e-28
9.0512e-07 1.8053e-28
9.0587e-07 2.1753e-28
9.0663e-07 3.3236e-28
9.0738e-07 4.3365e-28
9.0814e-07 4.5153e-28
9.089e-07 4.5127e-28
9.0966e-07 4.6151e-28
9.1041e-07 4.3626e-28
9.1117e-07 4.0144e-28
9.1193e-07 3.8454e-28
9.1269e-07 4.537e-28
9.1346e-07 5.5341e-28
9.1422e-07 4.9277e-28
9.1498e-07 4.7942e-28
9.1574e-07 5.3546e-28
9.1651e-07 4.8601e-28
9.1727e-07 4.8663e-28
9.1804e-07 4.9276e-28
9.188e-07 3.844e-28
9.1957e-07 2.7422e-28
9.2034e-07 2.1981e-28
9.211e-07 2.4335e-28
9.2187e-07 2.6145e-28
9.2264e-07 2.3595e-28
9.2341e-07 2.8049e-28
9.2418e-07 3.4588e-28
9.2495e-07 3.3606e-28
9.2572e-07 3.0648e-28
9.265e-07 3.0819e-28
9.2727e-07 3.9272e-28
9.2804e-07 5.976e-28
9.2882e-07 7.9316e-28
9.2959e-07 9.1302e-28
9.3037e-07 1.0656e-27
9.3114e-07 1.2865e-27
9.3192e-07 1.5824e-27
9.327e-07 1.879e-27
9.3348e-07 2.1618e-27
9.3426e-07 2.1937e-27
9.3503e-07 1.9134e-27
9.3581e-07 1.8498e-27
9.366e-07 1.9313e-27
9.3738e-07 2.0644e-27
9.3816e-07 1.7816e-27
9.3894e-07 1.1586e-27
9.3972e-07 9.1239e-28
9.4051e-07 1.0427e-27
9.4129e-07 1.1887e-27
9.4208e-07 1.2368e-27
9.4286e-07 1.3047e-27
9.4365e-07 1.3686e-27
9.4444e-07 1.4418e-27
9.4523e-07 1.4028e-27
9.4601e-07 1.4497e-27
9.468e-07 1.4217e-27
9.4759e-07 1.3388e-27
9.4838e-07 1.2484e-27
9.4918e-07 1.225e-27
9.4997e-07 1.335e-27
9.5076e-07 1.1658e-27
9.5155e-07 1.165e-27
9.5235e-07 1.4372e-27
9.5314e-07 1.2936e-27
9.5394e-07 1.1043e-27
9.5473e-07 1.1894e-27
9.5553e-07 1.2286e-27
9.5633e-07 1.1523e-27
9.5712e-07 1.0191e-27
9.5792e-07 8.9733e-28
9.5872e-07 1.0376e-27
9.5952e-07 1.2019e-27
9.6032e-07 1.037e-27
9.6112e-07 8.8217e-28
9.6192e-07 8.9087e-28
9.6273e-07 8.5075e-28
9.6353e-07 7.407e-28
9.6433e-07 7.2627e-28
9.6514e-07 7.3772e-28
9.6594e-07 7.5068e-28
9.6675e-07 6.5264e-28
9.6756e-07 4.2606e-28
9.6836e-07 3.2575e-28
9.6917e-07 3.0703e-28
9.6998e-07 2.8214e-28
9.7079e-07 2.5405e-28
9.716e-07 2.5856e-28
9.7241e-07 3.0229e-28
9.7322e-07 3.8785e-28
9.7403e-07 4.4604e-28
9.7484e-07 4.3544e-28
9.7566e-07 4.7076e-28
9.7647e-07 4.3108e-28
9.7729e-07 3.1991e-28
9.781e-07 3.1264e-28
9.7892e-07 3.5015e-28
9.7973e-07 3.4471e-28
9.8055e-07 2.8377e-28
9.8137e-07 2.0574e-28
9.8219e-07 2.0573e-28
9.8301e-07 2.0132e-28
9.8383e-07 1.6367e-28
9.8465e-07 1.5313e-28
9.8547e-07 1.2243e-28
9.8629e-07 8.2399e-29
9.8711e-07 8.3054e-29
9.8794e-07 7.5538e-29
9.8876e-07 5.5545e-29
9.8959e-07 5.9359e-29
9.9041e-07 6.0061e-29
9.9124e-07 4.2067e-29
9.9207e-07 4.0794e-29
9.9289e-07 4.9256e-29
9.9372e-07 3.4474e-29
9.9455e-07 1.9739e-29
9.9538e-07 1.7028e-29
9.9621e-07 1.6681e-29
9.9704e-07 1.625e-29
9.9787e-07 1.7296e-29
9.9871e-07 1.9348e-29
9.9954e-07 2.069e-29
1.0004e-06 1.9832e-29
1.0012e-06 3.0281e-29
1.002e-06 4.315e-29
1.0029e-06 3.3288e-29
1.0037e-06 2.1478e-29
1.0046e-06 2.1382e-29
1.0054e-06 1.9331e-29
1.0062e-06 1.5435e-29
1.0071e-06 1.6322e-29
1.0079e-06 2.27e-29
1.0087e-06 3.3988e-29
1.0096e-06 3.9519e-29
1.0104e-06 2.6145e-29
1.0113e-06 1.6966e-29
1.0121e-06 1.728e-29
1.013e-06 1.2729e-29
1.0138e-06 9.6432e-30
1.0147e-06 1.3124e-29
1.0155e-06 1.3081e-29
1.0163e-06 1.0925e-29
1.0172e-06 1.0745e-29
1.018e-06 1.1004e-29
1.0189e-06 1.4808e-29
1.0197e-06 1.6452e-29
1.0206e-06 1.2553e-29
1.0214e-06 1.0965e-29
1.0223e-06 1.2629e-29
1.0232e-06 2.118e-29
1.024e-06 2.4353e-29
1.0249e-06 1.3884e-29
1.0257e-06 7.8097e-30
1.0266e-06 1.0567e-29
1.0274e-06 1.3615e-29
1.0283e-06 1.1982e-29
1.0291e-06 8.0322e-30
1.03e-06 5.1884e-30
