2.8e-07 -0
2.8023e-07 -0
2.8047e-07 -0
2.807e-07 -0
2.8094e-07 -0
2.8117e-07 -0
2.814e-07 -0
2.8164e-07 -0
2.8187e-07 -0
2.8211e-07 -0
2.8234e-07 -0
2.8258e-07 -0
2.8282e-07 -0
2.8305e-07 -0
2.8329e-07 -0
2.8352e-07 -0
2.8376e-07 -0
2.84e-07 -0
2.8423e-07 -0
2.8447e-07 -0
2.8471e-07 -0
2.8495e-07 -0
2.8518e-07 -0
2.8542e-07 -0
2.8566e-07 -0
2.859e-07 -0
2.8614e-07 -0
2.8638e-07 -0
2.8661e-07 -0
2.8685e-07 -0
2.8709e-07 -0
2.8733e-07 -0
2.8757e-07 -0
2.8781e-07 -0
2.8805e-07 -0
2.8829e-07 -0
2.8853e-07 -0
2.8877e-07 -0
2.8901e-07 -0
2.8926e-07 -0
2.895e-07 -0
2.8974e-07 -0
2.8998e-07 -0
2.9022e-07 -0
2.9046e-07 -0
2.9071e-07 -0
2.9095e-07 -0
2.9119e-07 -0
2.9143e-07 -0
2.9168e-07 -0
2.9192e-07 -0
2.9216e-07 -0
2.9241e-07 -0
2.9265e-07 -0
2.929e-07 -0
2.9314e-07 -0
2.9339e-07 -0
2.9363e-07 -0
2.9388e-07 -0
2.9412e-07 -0
2.9437e-07 -0
2.9461e-07 -0
2.9486e-07 -0
2.951e-07 -0
2.9535e-07 -0
2.956e-07 -0
2.9584e-07 -0
2.9609e-07 -0
2.9634e-07 -0
2.9658e-07 -0
2.9683e-07 -0
2.9708e-07 -0
2.9733e-07 -0
2.9757e-07 -0
2.9782e-07 -0
2.9807e-07 -0
2.9832e-07 -0
2.9857e-07 -0
2.9882e-07 -0
2.9907e-07 -0
2.9932e-07 -0
2.9957e-07 -0
2.9982e-07 -0
3.0007e-07 -0
3.0032e-07 -0
3.0057e-07 -0
3.0082e-07 -0
3.0107e-07 -0
3.0132e-07 -0
3.0157e-07 -0
3.0182e-07 -0
3.0207e-07 -0
3.0233e-07 -0
3.0258e-07 -0
3.0283e-07 -0
3.0308e-07 -0
3.0334e-07 -0
3.0359e-07 -0
3.0384e-07 -0
3.041e-07 -0
3.0435e-07 -0
3.046e-07 -0
3.0486e-07 -0
3.0511e-07 -0
3.0537e-07 -0
3.0562e-07 -0
3.0588e-07 -0
3.0613e-07 -0
3.0639e-07 -0
3.0664e-07 -0
3.069e-07 -0
3.0715e-07 -0
3.0741e-07 -0
3.0767e-07 -0
3.0792e-07 -0
3.0818e-07 -0
3.0844e-07 -0
3.087e-07 -0
3.0895e-07 -0
3.0921e-07 -0
3.0947e-07 -0
3.0973e-07 -0
3.0998e-07 -0
3.1024e-07 -0
3.105e-07 -0
3.1076e-07 -0
3.1102e-07 -0
3.1128e-07 -0
3.1154e-07 -0
3.118e-07 -0
3.1206e-07 -0
3.1232e-07 -0
3.1258e-07 -0
3.1284e-07 -0
3.131e-07 -0
3.1336e-07 -0
3.1362e-07 -0
3.1389e-07 -0
3.1415e-07 -0
3.1441e-07 -0
3.1467e-07 -0
3.1494e-07 -0
3.152e-07 -0
3.1546e-07 -0
3.1572e-07 -0
3.1599e-07 -0
3.1625e-07 -0
3.1651e-07 -0
3.1678e-07 -0
3.1704e-07 -0
3.1731e-07 -0
3.1757e-07 -0
3.1784e-07 -0
3.181e-07 -0
3.1837e-07 -0
3.1863e-07 -0
3.189e-07 -0
3.1917e-07 -0
3.1943e-07 -0
3.197e-07 -0
3.1996e-07 -0
3.2023e-07 -0
3.205e-07 -0
3.2077e-07 -0
3.2103e-07 -0
3.213e-07 -0
3.2157e-07 -0
3.2184e-07 -0
3.2211e-07 -0
3.2238e-07 -0
3.2264e-07 -0
3.2291e-07 -0
3.2318e-07 -0
3.2345e-07 -0
3.2372e-07 -0
3.2399e-07 -0
3.2426e-07 -0
3.2453e-07 -0
3.248e-07 -0
3.2507e-07 -0
3.2535e-07 -0
3.2562e-07 -0
3.2589e-07 -0
3.2616e-07 -0
3.2643e-07 -0
3.2671e-07 -0
3.2698e-07 -0
3.2725e-07 -0
3.2752e-07 -0
3.278e-07 -0
3.2807e-07 -0
3.2834e-07 -0
3.2862e-07 -0
3.2889e-07 -0
3.2917e-07 -0
3.2944e-07 -0
3.2972e-07 -0
3.2999e-07 -0
3.3027e-07 -0
3.3054e-07 -0
3.3082e-07 -0
3.3109e-07 -0
3.3137e-07 -0
3.3165e-07 -0
3.3192e-07 -0
3.322e-07 -0
3.3248e-07 -0
3.3275e-07 -0
3.3303e-07 -0
3.3331e-07 -0
3.3359e-07 -0
3.3387e-07 -0
3.3414e-07 -0
3.3442e-07 -0
3.347e-07 -0
3.3498e-07 -0
3.3526e-07 -0
3.3554e-07 -0
3.3582e-07 -0
3.361e-07 -0
3.3638e-07 -0
3.3666e-07 -0
3.3694e-07 -0
3.3722e-07 -0
3.375e-07 -0
3.3779e-07 -0
3.3807e-07 -0
3.3835e-07 -0
3.3863e-07 -0
3.3891e-07 -0
3.392e-07 -0
3.3948e-07 -0
3.3976e-07 -0
3.4005e-07 -0
3.4033e-07 -0
3.4061e-07 -0
3.409e-07 -0
3.4118e-07 -0
3.4147e-07 -0
3.4175e-07 -0
3.4204e-07 -0
3.4232e-07 -0
3.4261e-07 -0
3.4289e-07 -0
3.4318e-07 -0
3.4347e-07 -0
3.4375e-07 -0
3.4404e-07 -0
3.4433e-07 -0
3.4461e-07 -0
3.449e-07 -0
3.4519e-07 -0
3.4548e-07 -0
3.4577e-07 -0
3.4605e-07 -0
3.4634e-07 -0
3.4663e-07 -0
3.4692e-07 -0
3.4721e-07 -0
3.475e-07 -0
3.4779e-07 -0
3.4808e-07 -0
3.4837e-07 -0
3.4866e-07 -0
3.4895e-07 -0
3.4924e-07 -0
3.4953e-07 -0
3.4983e-07 -0
3.5012e-07 -0
3.5041e-07 -0
3.507e-07 -0
3.5099e-07 -0
3.5129e-07 -0
3.5158e-07 -0
3.5187e-07 -0
3.5217e-07 -0
3.5246e-07 -0
3.5276e-07 -0
3.5305e-07 -0
3.5334e-07 -0
3.5364e-07 -0
3.5393e-07 -0
3.5423e-07 -0
3.5452e-07 -0
3.5482e-07 -0
3.5512e-07 -0
3.5541e-07 -0
3.5571e-07 -0
3.5601e-07 -0
3.563e-07 -0
3.566e-07 -0
3.569e-07 -0
3.572e-07 -0
3.5749e-07 -0
3.5779e-07 -0
3.5809e-07 -0
3.5839e-07 -0
3.5869e-07 -0
3.5899e-07 -0
3.5929e-07 -0
3.5959e-07 -0
3.5989e-07 -0
3.6019e-07 -0
3.6049e-07 -0
3.6079e-07 -0
3.6109e-07 -0
3.6139e-07 -0
3.6169e-07 -0
3.6199e-07 -0
3.623e-07 -0
3.626e-07 -0
3.629e-07 -0
3.632e-07 -0
3.6351e-07 -0
3.6381e-07 -0
3.6411e-07 -0
3.6442e-07 -0
3.6472e-07 -0
3.6502e-07 -0
3.6533e-07 -0
3.6563e-07 -0
3.6594e-07 -0
3.6624e-07 -0
3.6655e-07 -0
3.6686e-07 -0
3.6716e-07 -0
3.6747e-07 -0
3.6777e-07 -0
3.6808e-07 -0
3.6839e-07 -0
3.687e-07 -0
3.69e-07 -0
3.6931e-07 -0
3.6962e-07 -0
3.6993e-07 -0
3.7024e-07 -0
3.7054e-07 -0
3.7085e-07 -0
3.7116e-07 -0
3.7147e-07 -0
3.7178e-07 -0
3.7209e-07 -0
3.724e-07 -0
3.7271e-07 -0
3.7302e-07 -0
3.7334e-07 -0
3.7365e-07 -0
3.7396e-07 -0
3.7427e-07 -0
3.7458e-07 -0
3.749e-07 -0
3.7521e-07 -0
3.7552e-07 -0
3.7583e-07 -0
3.7615e-07 -0
3.7646e-07 -0
3.7678e-07 -0
3.7709e-07 -0
3.7741e-07 -0
3.7772e-07 -0
3.7804e-07 -0
3.7835e-07 -0
3.7867e-07 -0
3.7898e-07 -0
3.793e-07 -0
3.7961e-07 -0
3.7993e-07 -0
3.8025e-07 -0
3.8057e-07 -0
3.8088e-07 -0
3.812e-07 -0
3.8152e-07 -0
3.8184e-07 -0
3.8216e-07 -0
3.8247e-07 -0
3.8279e-07 -0
3.8311e-07 -0
3.8343e-07 -0
3.8375e-07 -0
3.8407e-07 -0
3.8439e-07 -0
3.8471e-07 -0
3.8503e-07 -0
3.8536e-07 6.743e-40
3.8568e-07 2.5229e-38
3.86e-07 1.3539e-37
3.8632e-07 3.925e-37
3.8664e-07 8.873e-37
3.8697e-07 1.8788e-36
3.8729e-07 3.6534e-36
3.8761e-07 6.4983e-36
3.8793e-07 1.1247e-35
3.8826e-07 2.2432e-35
3.8858e-07 2.5192e-33
3.8891e-07 8.3857e-33
3.8923e-07 1.6365e-32
3.8956e-07 2.7175e-32
3.8988e-07 4.851e-32
3.9021e-07 7.6757e-32
3.9053e-07 9.4988e-32
3.9086e-07 1.0474e-31
3.9118e-07 8.977e-32
3.9151e-07 7.3729e-32
3.9184e-07 5.3224e-32
3.9216e-07 5.0496e-32
3.9249e-07 6.3802e-32
3.9282e-07 7.469e-32
3.9315e-07 7.1551e-32
3.9347e-07 4.5871e-32
3.938e-07 2.3264e-32
3.9413e-07 1.0465e-32
3.9446e-07 1.432e-32
3.9479e-07 3.1273e-32
3.9512e-07 4.3869e-32
3.9545e-07 4.8069e-32
3.9578e-07 6.2449e-32
3.9611e-07 1.332e-31
3.9644e-07 2.6532e-31
3.9677e-07 4.3503e-31
3.971e-07 7.7744e-31
3.9743e-07 8.1303e-31
3.9776e-07 4.9473e-31
3.9809e-07 3.7437e-31
3.9843e-07 4.3056e-31
3.9876e-07 4.5441e-31
3.9909e-07 4.5136e-31
3.9942e-07 4.5754e-31
3.9976e-07 4.6726e-31
4.0009e-07 3.8664e-31
4.0042e-07 3.1194e-31
4.0076e-07 2.6823e-31
4.0109e-07 2.0498e-31
4.0143e-07 1.6444e-31
4.0176e-07 1.5263e-31
4.021e-07 1.3793e-31
4.0243e-07 1.0822e-31
4.0277e-07 8.6005e-32
4.031e-07 7.8459e-32
4.0344e-07 6.0549e-32
4.0378e-07 4.6957e-32
4.0411e-07 4.8793e-32
4.0445e-07 4.8925e-32
4.0479e-07 3.5863e-32
4.0513e-07 2.5685e-32
4.0546e-07 2.1334e-32
4.058e-07 1.2857e-32
4.0614e-07 1.0043e-32
4.0648e-07 9.9791e-33
4.0682e-07 4.4327e-33
4.0716e-07 2.7236e-33
4.075e-07 5.0749e-33
4.0784e-07 5.0981e-33
4.0818e-07 6.3873e-33
4.0852e-07 1.0806e-32
4.0886e-07 8.154e-33
4.092e-07 3.1337e-33
4.0954e-07 2.162e-35
4.0988e-07 7.0408e-36
4.1023e-07 6.9806e-36
4.1057e-07 1.2725e-35
4.1091e-07 1.8329e-33
4.1125e-07 3.6197e-33
4.116e-07 2.1079e-33
4.1194e-07 5.3284e-33
4.1228e-07 1.7146e-32
4.1263e-07 2.988e-32
4.1297e-07 3.5444e-32
4.1332e-07 3.5062e-32
4.1366e-07 3.1795e-32
4.1401e-07 3.7634e-32
4.1435e-07 6.2728e-32
4.147e-07 1.2164e-31
4.1504e-07 1.9438e-31
4.1539e-07 2.3587e-31
4.1574e-07 2.7388e-31
4.1608e-07 3.666e-31
4.1643e-07 5.319e-31
4.1678e-07 5.8392e-31
4.1712e-07 3.6706e-31
4.1747e-07 2.059e-31
4.1782e-07 2.1549e-31
4.1817e-07 2.5476e-31
4.1852e-07 2.3628e-31
4.1887e-07 2.1779e-31
4.1922e-07 1.9921e-31
4.1957e-07 1.7435e-31
4.1992e-07 1.2294e-31
4.2027e-07 8.6829e-32
4.2062e-07 6.8276e-32
4.2097e-07 5.0236e-32
4.2132e-07 4.1661e-32
4.2167e-07 3.2152e-32
4.2202e-07 2.4784e-32
4.2238e-07 1.7739e-32
4.2273e-07 1.1009e-32
4.2308e-07 7.7215e-33
4.2343e-07 5.0812e-33
4.2379e-07 2.8411e-33
4.2414e-07 2.3032e-33
4.2449e-07 1.3295e-32
4.2485e-07 4.0822e-32
4.252e-07 5.8645e-32
4.2556e-07 7.5112e-32
4.2591e-07 1.2235e-31
4.2627e-07 1.4826e-31
4.2662e-07 9.8361e-32
4.2698e-07 6.0135e-32
4.2733e-07 7.3109e-32
4.2769e-07 8.1324e-32
4.2805e-07 6.7448e-32
4.2841e-07 6.1294e-32
4.2876e-07 6.944e-32
4.2912e-07 7.2492e-32
4.2948e-07 5.6328e-32
4.2984e-07 3.9028e-32
4.302e-07 3.5522e-32
4.3055e-07 2.2817e-32
4.3091e-07 9.4249e-33
4.3127e-07 6.7784e-33
4.3163e-07 6.4002e-33
4.3199e-07 5.318e-33
4.3235e-07 2.9856e-33
4.3271e-07 1.9799e-33
4.3307e-07 1.1578e-33
4.3344e-07 2.8433e-34
4.338e-07 3.975e-36
4.3416e-07 3.3293e-36
4.3452e-07 4.4454e-36
4.3488e-07 1.9072e-35
4.3525e-07 2.2519e-33
4.3561e-07 6.0175e-33
4.3597e-07 6.2954e-33
4.3634e-07 2.8091e-33
4.367e-07 4.5164e-34
4.3707e-07 5.7041e-35
4.3743e-07 4.0464e-33
4.3779e-07 1.1234e-32
4.3816e-07 1.8624e-32
4.3853e-07 4.0563e-32
4.3889e-07 9.1566e-32
4.3926e-07 1.3097e-31
4.3962e-07 1.5434e-31
4.3999e-07 2.1177e-31
4.4036e-07 2.6401e-31
4.4073e-07 3.23e-31
4.4109e-07 5.6336e-31
4.4146e-07 9.6339e-31
4.4183e-07 1.184e-30
4.422e-07 1.749e-30
4.4257e-07 3.0553e-30
4.4294e-07 3.4579e-30
4.4331e-07 2.3742e-30
4.4368e-07 1.315e-30
4.4405e-07 1.2583e-30
4.4442e-07 1.6158e-30
4.4479e-07 1.891e-30
4.4516e-07 1.8398e-30
4.4553e-07 1.8067e-30
4.459e-07 1.7771e-30
4.4627e-07 1.4232e-30
4.4664e-07 1.1122e-30
4.4702e-07 9.6448e-31
4.4739e-07 8.4393e-31
4.4776e-07 6.6614e-31
4.4814e-07 4.8684e-31
4.4851e-07 3.9263e-31
4.4889e-07 3.2613e-31
4.4926e-07 2.167e-31
4.4963e-07 1.5464e-31
4.5001e-07 1.0949e-31
4.5038e-07 9.0544e-32
4.5076e-07 7.7207e-32
4.5114e-07 4.791e-32
4.5151e-07 2.5208e-32
4.5189e-07 1.9966e-32
4.5227e-07 2.7863e-32
4.5264e-07 5.3806e-32
4.5302e-07 7.4115e-32
4.534e-07 5.9412e-32
4.5378e-07 3.2879e-32
4.5416e-07 3.7246e-32
4.5454e-07 6.1092e-32
4.5491e-07 6.3678e-32
4.5529e-07 5.7448e-32
4.5567e-07 6.1705e-32
4.5605e-07 6.7368e-32
4.5643e-07 8.2621e-32
4.5682e-07 9.5103e-32
4.572e-07 6.9128e-32
4.5758e-07 3.892e-32
4.5796e-07 4.4285e-32
4.5834e-07 5.1684e-32
4.5872e-07 4.7829e-32
4.5911e-07 4.1453e-32
4.5949e-07 3.3436e-32
4.5987e-07 3.0123e-32
4.6026e-07 2.6466e-32
4.6064e-07 1.6612e-32
4.6102e-07 9.9709e-33
4.6141e-07 6.5231e-33
4.6179e-07 2.5733e-33
4.6218e-07 3.3104e-33
4.6256e-07 5.6546e-33
4.6295e-07 3.4318e-33
4.6334e-07 1.3621e-33
4.6372e-07 5.3956e-33
4.6411e-07 9.7226e-33
4.645e-07 8.6687e-33
4.6489e-07 8.0872e-33
4.6527e-07 1.4366e-32
4.6566e-07 3.6575e-32
4.6605e-07 9.1203e-32
4.6644e-07 2.0877e-31
4.6683e-07 4.0554e-31
4.6722e-07 5.7931e-31
4.6761e-07 5.5792e-31
4.68e-07 4.5997e-31
4.6839e-07 5.5633e-31
4.6878e-07 7.7127e-31
4.6917e-07 9.9907e-31
4.6956e-07 1.386e-30
4.6995e-07 1.4623e-30
4.7034e-07 1.0038e-30
4.7074e-07 8.8919e-31
4.7113e-07 8.9609e-31
4.7152e-07 7.1733e-31
4.7192e-07 6.4215e-31
4.7231e-07 7.8299e-31
4.727e-07 7.914e-31
4.731e-07 7.681e-31
4.7349e-07 6.4993e-31
4.7389e-07 4.7722e-31
4.7428e-07 4.3383e-31
4.7468e-07 3.7962e-31
4.7507e-07 2.6127e-31
4.7547e-07 1.9628e-31
4.7587e-07 1.7286e-31
4.7626e-07 1.4703e-31
4.7666e-07 1.1797e-31
4.7706e-07 8.813e-32
4.7746e-07 5.7919e-32
4.7786e-07 3.9917e-32
4.7825e-07 2.8473e-32
4.7865e-07 1.8533e-32
4.7905e-07 1.1071e-32
4.7945e-07 3.2731e-33
4.7985e-07 5.9385e-34
4.8025e-07 3.5416e-34
4.8065e-07 8.7758e-35
4.8105e-07 1.5049e-33
4.8146e-07 4.2789e-33
4.8186e-07 8.9501e-33
4.8226e-07 1.6621e-32
4.8266e-07 2.6626e-32
4.8306e-07 6.1539e-32
4.8347e-07 1.2875e-31
4.8387e-07 2.3431e-31
4.8427e-07 4.6105e-31
4.8468e-07 9.0265e-31
4.8508e-07 1.2543e-30
4.8549e-07 1.2652e-30
4.8589e-07 9.2761e-31
4.863e-07 6.9301e-31
4.867e-07 7.5606e-31
4.8711e-07 9.1706e-31
4.8752e-07 9.042e-31
4.8792e-07 8.7284e-31
4.8833e-07 7.6119e-31
4.8874e-07 8.2116e-31
4.8914e-07 9.5195e-31
4.8955e-07 7.9943e-31
4.8996e-07 5.7181e-31
4.9037e-07 5.0877e-31
4.9078e-07 4.8183e-31
4.9119e-07 4.3674e-31
4.916e-07 3.8305e-31
4.9201e-07 2.8755e-31
4.9242e-07 2.6405e-31
4.9283e-07 2.1616e-31
4.9324e-07 1.5485e-31
4.9365e-07 1.0909e-31
4.9406e-07 8.354e-32
4.9448e-07 6.6676e-32
4.9489e-07 4.8885e-32
4.953e-07 3.4741e-32
4.9571e-07 2.7781e-32
4.9613e-07 2.5641e-32
4.9654e-07 2.2614e-32
4.9696e-07 3.2852e-32
4.9737e-07 5.3645e-32
4.9779e-07 1.0807e-31
4.982e-07 2.3065e-31
4.9862e-07 3.572e-31
4.9903e-07 4.8124e-31
4.9945e-07 6.4152e-31
4.9986e-07 8.5267e-31
5.0028e-07 1.1054e-30
5.007e-07 1.3366e-30
5.0112e-07 1.9221e-30
5.0154e-07 3.1579e-30
5.0195e-07 3.7853e-30
5.0237e-07 4.3826e-30
5.0279e-07 5.7552e-30
5.0321e-07 9.2131e-30
5.0363e-07 1.6278e-29
5.0405e-07 1.8136e-29
5.0447e-07 1.4136e-29
5.0489e-07 8.3338e-30
5.0531e-07 6.7675e-30
5.0573e-07 9.0003e-30
5.0616e-07 9.1775e-30
5.0658e-07 8.5137e-30
5.07e-07 9.7134e-30
5.0742e-07 1.0623e-29
5.0785e-07 9.6559e-30
5.0827e-07 8.0265e-30
5.087e-07 6.727e-30
5.0912e-07 5.794e-30
5.0954e-07 5.4512e-30
5.0997e-07 4.5402e-30
5.104e-07 3.4517e-30
5.1082e-07 2.6955e-30
5.1125e-07 2.2559e-30
5.1167e-07 1.7823e-30
5.121e-07 1.4282e-30
5.1253e-07 1.2037e-30
5.1296e-07 8.6693e-31
5.1338e-07 6.2347e-31
5.1381e-07 4.2473e-31
5.1424e-07 2.9935e-31
5.1467e-07 2.5456e-31
5.151e-07 2.2236e-31
5.1553e-07 1.9469e-31
5.1596e-07 1.6162e-31
5.1639e-07 1.4761e-31
5.1682e-07 1.3438e-31
5.1725e-07 1.133e-31
5.1768e-07 1.0234e-31
5.1811e-07 9.0714e-32
5.1855e-07 8.0706e-32
5.1898e-07 7.8823e-32
5.1941e-07 7.4833e-32
5.1984e-07 6.2238e-32
5.2028e-07 5.0886e-32
5.2071e-07 4.7104e-32
5.2115e-07 4.8024e-32
5.2158e-07 6.0426e-32
5.2202e-07 8.0653e-32
5.2245e-07 9.8634e-32
5.2289e-07 2.0046e-31
5.2332e-07 4.5773e-31
5.2376e-07 9.2803e-31
5.242e-07 1.4436e-30
5.2464e-07 1.534e-30
5.2507e-07 1.221e-30
5.2551e-07 7.6483e-31
5.2595e-07 3.98e-31
5.2639e-07 5.2826e-31
5.2683e-07 9.7897e-31
5.2727e-07 1.0129e-30
5.2771e-07 6.8703e-31
5.2815e-07 5.481e-31
5.2859e-07 6.5752e-31
5.2903e-07 7.2999e-31
5.2947e-07 6.9876e-31
5.2991e-07 7.2728e-31
5.3035e-07 7.4036e-31
5.308e-07 6.9102e-31
5.3124e-07 5.4681e-31
5.3168e-07 4.6151e-31
5.3213e-07 4.1068e-31
5.3257e-07 3.7789e-31
5.3301e-07 2.9445e-31
5.3346e-07 2.1553e-31
5.339e-07 1.9479e-31
5.3435e-07 1.9345e-31
5.3479e-07 2.3713e-31
5.3524e-07 2.8623e-31
5.3569e-07 3.2023e-31
5.3613e-07 3.4558e-31
5.3658e-07 4.5578e-31
5.3703e-07 5.2361e-31
5.3748e-07 6.0195e-31
5.3793e-07 7.8463e-31
5.3837e-07 1.0028e-30
5.3882e-07 1.1573e-30
5.3927e-07 1.641e-30
5.3972e-07 2.3494e-30
5.4017e-07 3.3542e-30
5.4062e-07 5.2547e-30
5.4107e-07 7.5776e-30
5.4153e-07 8.0346e-30
5.4198e-07 6.9374e-30
5.4243e-07 5.614e-30
5.4288e-07 4.5708e-30
5.4334e-07 5.4399e-30
5.4379e-07 6.3517e-30
5.4424e-07 5.2483e-30
5.447e-07 4.5538e-30
5.4515e-07 4.9105e-30
5.4561e-07 5.6279e-30
5.4606e-07 7.1412e-30
5.4652e-07 6.9896e-30
5.4697e-07 5.1012e-30
5.4743e-07 3.6762e-30
5.4788e-07 3.1414e-30
5.4834e-07 2.6079e-30
5.488e-07 2.1844e-30
5.4926e-07 2.2347e-30
5.4972e-07 2.2651e-30
5.5017e-07 1.9103e-30
5.5063e-07 1.4635e-30
5.5109e-07 1.2991e-30
5.5155e-07 9.9504e-31
5.5201e-07 6.8945e-31
5.5247e-07 5.4131e-31
5.5293e-07 4.3082e-31
5.5339e-07 3.2101e-31
5.5386e-07 2.5323e-31
5.5432e-07 2.1516e-31
5.5478e-07 2.0694e-31
5.5524e-07 1.5774e-31
5.5571e-07 1.0731e-31
5.5617e-07 6.1729e-32
5.5663e-07 3.4637e-32
5.571e-07 5.0263e-32
5.5756e-07 8.4708e-32
5.5803e-07 1.2265e-31
5.5849e-07 1.674e-31
5.5896e-07 2.0242e-31
5.5943e-07 2.2759e-31
5.5989e-07 2.9616e-31
5.6036e-07 3.5704e-31
5.6083e-07 3.9706e-31
5.613e-07 3.9214e-31
5.6176e-07 3.8718e-31
5.6223e-07 4.7461e-31
5.627e-07 5.398e-31
5.6317e-07 4.2414e-31
5.6364e-07 3.3495e-31
5.6411e-07 4.1005e-31
5.6458e-07 4.7591e-31
5.6505e-07 5.0358e-31
5.6552e-07 5.0529e-31
5.66e-07 6.8925e-31
5.6647e-07 1.137e-30
5.6694e-07 1.7516e-30
5.6741e-07 2.8319e-30
5.6789e-07 5.7747e-30
5.6836e-07 1.0587e-29
5.6883e-07 1.4608e-29
5.6931e-07 1.5094e-29
5.6978e-07 1.3529e-29
5.7026e-07 1.0172e-29
5.7074e-07 5.8914e-30
5.7121e-07 4.5062e-30
5.7169e-07 7.2795e-30
5.7216e-07 9.8782e-30
5.7264e-07 9.5296e-30
5.7312e-07 8.6434e-30
5.736e-07 7.9044e-30
5.7408e-07 8.5777e-30
5.7456e-07 9.3826e-30
5.7503e-07 7.7159e-30
5.7551e-07 6.8543e-30
5.7599e-07 6.4579e-30
5.7647e-07 5.7287e-30
5.7696e-07 5.785e-30
5.7744e-07 5.7786e-30
5.7792e-07 4.462e-30
5.784e-07 3.2585e-30
5.7888e-07 2.7535e-30
5.7937e-07 2.4992e-30
5.7985e-07 2.0844e-30
5.8033e-07 1.9358e-30
5.8082e-07 1.8576e-30
5.813e-07 1.9115e-30
5.8179e-07 2.0856e-30
5.8227e-07 2.1628e-30
5.8276e-07 2.252e-30
5.8324e-07 2.5533e-30
5.8373e-07 2.841e-30
5.8422e-07 3.0251e-30
5.8471e-07 3.2885e-30
5.8519e-07 3.5581e-30
5.8568e-07 4.5715e-30
5.8617e-07 6.6647e-30
5.8666e-07 9.5586e-30
5.8715e-07 1.3625e-29
5.8764e-07 2.2982e-29
5.8813e-07 3.9882e-29
5.8862e-07 6.0247e-29
5.8911e-07 7.1123e-29
5.896e-07 7.1394e-29
5.9009e-07 6.93e-29
5.9059e-07 5.9467e-29
5.9108e-07 5.2413e-29
5.9157e-07 5.8513e-29
5.9206e-07 6.8157e-29
5.9256e-07 6.0234e-29
5.9305e-07 4.1535e-29
5.9355e-07 3.5696e-29
5.9404e-07 5.2053e-29
5.9454e-07 7.0819e-29
5.9503e-07 6.3193e-29
5.9553e-07 4.3649e-29
5.9603e-07 3.7147e-29
5.9652e-07 3.6262e-29
5.9702e-07 3.862e-29
5.9752e-07 3.6751e-29
5.9802e-07 2.8231e-29
5.9852e-07 2.3833e-29
5.9902e-07 2.2101e-29
5.9952e-07 1.9713e-29
6.0002e-07 1.5343e-29
6.0052e-07 1.148e-29
6.0102e-07 8.358e-30
6.0152e-07 7.3394e-30
6.0202e-07 5.9796e-30
6.0252e-07 4.4103e-30
6.0303e-07 3.5491e-30
6.0353e-07 2.5682e-30
6.0403e-07 1.755e-30
6.0454e-07 1.461e-30
6.0504e-07 1.1208e-30
6.0555e-07 8.8129e-31
6.0605e-07 7.0374e-31
6.0656e-07 4.9553e-31
6.0706e-07 3.7185e-31
6.0757e-07 3.2557e-31
6.0808e-07 2.6142e-31
6.0858e-07 2.1549e-31
6.0909e-07 1.7761e-31
6.096e-07 1.3698e-31
6.1011e-07 1.1589e-31
6.1062e-07 9.439e-32
6.1113e-07 7.4029e-32
6.1164e-07 6.5666e-32
6.1215e-07 6.0931e-32
6.1266e-07 5.2895e-32
6.1317e-07 4.0196e-32
6.1368e-07 3.5883e-32
6.1419e-07 3.8896e-32
6.147e-07 4.608e-32
6.1522e-07 4.9252e-32
6.1573e-07 4.5049e-32
6.1624e-07 5.0067e-32
6.1676e-07 5.8355e-32
6.1727e-07 6.0583e-32
6.1779e-07 7.3376e-32
6.183e-07 9.7264e-32
6.1882e-07 1.0429e-31
6.1933e-07 1.0457e-31
6.1985e-07 1.1446e-31
6.2037e-07 1.2033e-31
6.2089e-07 1.1911e-31
6.214e-07 1.3324e-31
6.2192e-07 1.5276e-31
6.2244e-07 1.7702e-31
6.2296e-07 2.1076e-31
6.2348e-07 2.7222e-31
6.24e-07 3.4293e-31
6.2452e-07 5.7117e-31
6.2504e-07 9.8766e-31
6.2556e-07 1.711e-30
6.2609e-07 3.0299e-30
6.2661e-07 5.1612e-30
6.2713e-07 7.7819e-30
6.2765e-07 1.0094e-29
6.2818e-07 1.1262e-29
6.287e-07 1.0785e-29
6.2923e-07 9.5376e-30
6.2975e-07 7.0895e-30
6.3028e-07 3.7665e-30
6.308e-07 2.3948e-30
6.3133e-07 5.079e-30
6.3185e-07 9.4329e-30
6.3238e-07 9.7401e-30
6.3291e-07 7.0961e-30
6.3344e-07 5.4763e-30
6.3397e-07 5.1997e-30
6.3449e-07 5.9459e-30
6.3502e-07 6.0007e-30
6.3555e-07 5.2237e-30
6.3608e-07 4.8574e-30
6.3661e-07 4.7228e-30
6.3715e-07 4.8427e-30
6.3768e-07 4.3834e-30
6.3821e-07 3.7344e-30
6.3874e-07 3.8994e-30
6.3927e-07 4.0874e-30
6.3981e-07 3.918e-30
6.4034e-07 4.0102e-30
6.4088e-07 4.2217e-30
6.4141e-07 4.0736e-30
6.4195e-07 4.0069e-30
6.4248e-07 4.0425e-30
6.4302e-07 4.5355e-30
6.4355e-07 5.4006e-30
6.4409e-07 6.3094e-30
6.4463e-07 7.7867e-30
6.4516e-07 1.0355e-29
6.457e-07 1.6752e-29
6.4624e-07 2.6926e-29
6.4678e-07 3.82e-29
6.4732e-07 5.1794e-29
6.4786e-07 6.1878e-29
6.484e-07 5.7384e-29
6.4894e-07 4.9295e-29
6.4948e-07 4.0664e-29
6.5003e-07 2.7039e-29
6.5057e-07 1.8279e-29
6.5111e-07 3.1113e-29
6.5165e-07 5.2414e-29
6.522e-07 4.6811e-29
6.5274e-07 2.6807e-29
6.5329e-07 2.0899e-29
6.5383e-07 2.2299e-29
6.5438e-07 2.6252e-29
6.5492e-07 3.3542e-29
6.5547e-07 3.4087e-29
6.5601e-07 2.9403e-29
6.5656e-07 2.6464e-29
6.5711e-07 2.6002e-29
6.5766e-07 2.3555e-29
6.5821e-07 1.8526e-29
6.5876e-07 1.4883e-29
6.5931e-07 1.133e-29
6.5986e-07 9.4395e-30
6.6041e-07 8.6097e-30
6.6096e-07 5.8512e-30
6.6151e-07 4.1189e-30
6.6206e-07 3.2673e-30
6.6261e-07 2.9854e-30
6.6317e-07 2.9968e-30
6.6372e-07 2.7202e-30
6.6427e-07 2.7262e-30
6.6483e-07 2.4772e-30
6.6538e-07 1.9265e-30
6.6594e-07 1.6749e-30
6.6649e-07 1.5817e-30
6.6705e-07 1.2318e-30
6.676e-07 8.8601e-31
6.6816e-07 7.3696e-31
6.6872e-07 6.4591e-31
6.6928e-07 4.8099e-31
6.6983e-07 3.3234e-31
6.7039e-07 2.6877e-31
6.7095e-07 1.9585e-31
6.7151e-07 1.3562e-31
6.7207e-07 1.3002e-31
6.7263e-07 1.2617e-31
6.7319e-07 8.4833e-32
6.7376e-07 6.8191e-32
6.7432e-07 8.518e-32
6.7488e-07 8.2813e-32
6.7544e-07 8.7906e-32
6.7601e-07 1.2159e-31
6.7657e-07 1.7588e-31
6.7714e-07 2.0022e-31
6.777e-07 2.4628e-31
6.7827e-07 3.4241e-31
6.7883e-07 4.1421e-31
6.794e-07 4.6445e-31
6.7996e-07 6.9557e-31
6.8053e-07 9.0033e-31
6.811e-07 9.7345e-31
6.8167e-07 1.2657e-30
6.8224e-07 1.7423e-30
6.8281e-07 1.9448e-30
6.8338e-07 1.8712e-30
6.8395e-07 2.3284e-30
6.8452e-07 2.683e-30
6.8509e-07 2.421e-30
6.8566e-07 2.4566e-30
6.8623e-07 3.2618e-30
6.868e-07 4.0417e-30
6.8738e-07 3.5137e-30
6.8795e-07 2.3133e-30
6.8852e-07 2.0251e-30
6.891e-07 2.4711e-30
6.8967e-07 3.2157e-30
6.9025e-07 5.1667e-30
6.9082e-07 8.6652e-30
6.914e-07 1.3499e-29
6.9198e-07 2.6e-29
6.9255e-07 5.4666e-29
6.9313e-07 8.3263e-29
6.9371e-07 1.0402e-28
6.9429e-07 1.1823e-28
6.9487e-07 1.0498e-28
6.9545e-07 9.0165e-29
6.9603e-07 7.9954e-29
6.9661e-07 5.0551e-29
6.9719e-07 2.7395e-29
6.9777e-07 2.5008e-29
6.9835e-07 4.4699e-29
6.9894e-07 7.0729e-29
6.9952e-07 7.9984e-29
7.001e-07 7.7622e-29
7.0069e-07 7.6515e-29
7.0127e-07 7.4664e-29
7.0186e-07 7.5118e-29
7.0244e-07 7.4788e-29
7.0303e-07 6.1713e-29
7.0361e-07 4.6995e-29
7.042e-07 4.6046e-29
7.0479e-07 4.8325e-29
7.0538e-07 5.0231e-29
7.0596e-07 4.9275e-29
7.0655e-07 4.0875e-29
7.0714e-07 3.6178e-29
7.0773e-07 3.4645e-29
7.0832e-07 3.2703e-29
7.0891e-07 2.8879e-29
7.0951e-07 2.7872e-29
7.101e-07 2.8762e-29
7.1069e-07 2.7013e-29
7.1128e-07 2.3198e-29
7.1188e-07 2.0795e-29
7.1247e-07 2.2713e-29
7.1306e-07 2.5827e-29
7.1366e-07 2.5758e-29
7.1425e-07 3.0729e-29
7.1485e-07 3.9735e-29
7.1545e-07 4.8265e-29
7.1604e-07 7.397e-29
7.1664e-07 1.5375e-28
7.1724e-07 2.6327e-28
7.1784e-07 3.2149e-28
7.1844e-07 3.2523e-28
7.1904e-07 3.432e-28
7.1964e-07 3.4991e-28
7.2024e-07 3.3067e-28
7.2084e-07 2.4024e-28
7.2144e-07 1.3422e-28
7.2204e-07 9.7037e-29
7.2264e-07 1.2243e-28
7.2324e-07 1.9199e-28
7.2385e-07 2.6221e-28
7.2445e-07 2.6607e-28
7.2506e-07 2.56e-28
7.2566e-07 2.5469e-28
7.2627e-07 2.3936e-28
7.2687e-07 2.2788e-28
7.2748e-07 2.4802e-28
7.2809e-07 2.3234e-28
7.2869e-07 2.0159e-28
7.293e-07 2.1719e-28
7.2991e-07 2.1759e-28
7.3052e-07 2.1584e-28
7.3113e-07 2.1436e-28
7.3174e-07 1.8319e-28
7.3235e-07 1.2855e-28
7.3296e-07 1.0321e-28
7.3357e-07 8.8295e-29
7.3418e-07 6.8316e-29
7.348e-07 6.7418e-29
7.3541e-07 7.2773e-29
7.3602e-07 7.3756e-29
7.3664e-07 7.6482e-29
7.3725e-07 6.3777e-29
7.3787e-07 4.9437e-29
7.3848e-07 4.709e-29
7.391e-07 4.4342e-29
7.3971e-07 3.6231e-29
7.4033e-07 2.6277e-29
7.4095e-07 1.9921e-29
7.4157e-07 1.765e-29
7.4218e-07 1.5031e-29
7.428e-07 1.2166e-29
7.4342e-07 7.8405e-30
7.4404e-07 5.8168e-30
7.4466e-07 5.1725e-30
7.4529e-07 4.173e-30
7.4591e-07 3.581e-30
7.4653e-07 2.7959e-30
7.4715e-07 2.4062e-30
7.4778e-07 2.0217e-30
7.484e-07 1.5551e-30
7.4902e-07 1.3364e-30
7.4965e-07 1.2932e-30
7.5027e-07 1.3218e-30
7.509e-07 1.2347e-30
7.5153e-07 9.9187e-31
7.5215e-07 7.6453e-31
7.5278e-07 5.5909e-31
7.5341e-07 4.7397e-31
7.5404e-07 5.2225e-31
7.5467e-07 4.4337e-31
7.553e-07 3.7649e-31
7.5593e-07 3.586e-31
7.5656e-07 2.7997e-31
7.5719e-07 2.9327e-31
7.5782e-07 4.4788e-31
7.5845e-07 4.9185e-31
7.5908e-07 3.7389e-31
7.5972e-07 2.6651e-31
7.6035e-07 2.5095e-31
7.6099e-07 2.2818e-31
7.6162e-07 2.0036e-31
7.6226e-07 1.4602e-31
7.6289e-07 9.9928e-32
7.6353e-07 9.9264e-32
7.6417e-07 8.9729e-32
7.648e-07 5.896e-32
7.6544e-07 4.3373e-32
7.6608e-07 3.8297e-32
7.6672e-07 3.0977e-32
7.6736e-07 2.4544e-32
7.68e-07 2.2921e-32
7.6864e-07 2.6064e-32
7.6928e-07 3.1628e-32
7.6992e-07 3.9784e-32
7.7056e-07 4.5722e-32
7.7121e-07 6.7951e-32
7.7185e-07 9.4291e-32
7.7249e-07 1.1872e-31
7.7314e-07 1.3769e-31
7.7378e-07 1.5427e-31
7.7443e-07 1.7313e-31
7.7508e-07 2.0763e-31
7.7572e-07 2.513e-31
7.7637e-07 2.171e-31
7.7702e-07 2.2702e-31
7.7766e-07 2.9889e-31
7.7831e-07 3.7227e-31
7.7896e-07 4.9152e-31
7.7961e-07 6.5833e-31
7.8026e-07 6.9264e-31
7.8091e-07 7.2502e-31
7.8157e-07 9.1518e-31
7.8222e-07 1.2595e-30
7.8287e-07 1.6118e-30
7.8352e-07 2.618e-30
7.8418e-07 4.4925e-30
7.8483e-07 5.9993e-30
7.8549e-07 6.9812e-30
7.8614e-07 1.2235e-29
7.868e-07 2.1308e-29
7.8745e-07 2.5917e-29
7.8811e-07 2.8362e-29
7.8877e-07 3.8264e-29
7.8943e-07 5.1447e-29
7.9008e-07 5.1623e-29
7.9074e-07 4.4174e-29
7.914e-07 4.0562e-29
7.9206e-07 3.9618e-29
7.9272e-07 3.7322e-29
7.9339e-07 2.6542e-29
7.9405e-07 1.4343e-29
7.9471e-07 1.3962e-29
7.9537e-07 2.9194e-29
7.9604e-07 5.163e-29
7.967e-07 5.6431e-29
7.9736e-07 3.8074e-29
7.9803e-07 2.993e-29
7.987e-07 3.0748e-29
7.9936e-07 3.4947e-29
8.0003e-07 4.4334e-29
8.007e-07 5.1656e-29
8.0136e-07 5.2638e-29
8.0203e-07 5.1593e-29
8.027e-07 5.3317e-29
8.0337e-07 5.0899e-29
8.0404e-07 4.725e-29
8.0471e-07 4.1219e-29
8.0538e-07 2.7931e-29
8.0606e-07 2.3282e-29
8.0673e-07 2.5876e-29
8.074e-07 2.5166e-29
8.0807e-07 2.8977e-29
8.0875e-07 3.735e-29
8.0942e-07 4.5251e-29
8.101e-07 5.4426e-29
8.1077e-07 6.9948e-29
8.1145e-07 9.0084e-29
8.1213e-07 1.0784e-28
8.1281e-07 1.477e-28
8.1348e-07 2.0425e-28
8.1416e-07 2.4063e-28
8.1484e-07 2.8235e-28
8.1552e-07 3.0638e-28
8.162e-07 3.2775e-28
8.1688e-07 3.2053e-28
8.1756e-07 2.9178e-28
8.1825e-07 2.8173e-28
8.1893e-07 2.479e-28
8.1961e-07 2.1704e-28
8.203e-07 1.7137e-28
8.2098e-07 1.0983e-28
8.2166e-07 1.1757e-28
8.2235e-07 2.5889e-28
8.2304e-07 4.0963e-28
8.2372e-07 3.2128e-28
8.2441e-07 1.6183e-28
8.251e-07 1.1221e-28
8.2579e-07 1.2793e-28
8.2647e-07 1.2831e-28
8.2716e-07 1.4785e-28
8.2785e-07 1.9962e-28
8.2854e-07 2.0833e-28
8.2924e-07 1.8796e-28
8.2993e-07 1.7402e-28
8.3062e-07 1.5722e-28
8.3131e-07 1.5469e-28
8.3201e-07 1.584e-28
8.327e-07 1.4189e-28
8.334e-07 1.3208e-28
8.3409e-07 1.1948e-28
8.3479e-07 8.8784e-29
8.3548e-07 8.3799e-29
8.3618e-07 8.4852e-29
8.3688e-07 7.3291e-29
8.3758e-07 6.6156e-29
8.3827e-07 5.5298e-29
8.3897e-07 4.5035e-29
8.3967e-07 3.786e-29
8.4037e-07 3.6721e-29
8.4107e-07 4.0987e-29
8.4178e-07 3.3817e-29
8.4248e-07 2.1354e-29
8.4318e-07 2.1671e-29
8.4388e-07 2.365e-29
8.4459e-07 1.8038e-29
8.4529e-07 1.153e-29
8.46e-07 1.0041e-29
8.467e-07 8.1383e-30
8.4741e-07 7.7351e-30
8.4812e-07 1.0286e-29
8.4883e-07 1.0834e-29
8.4953e-07 9.9814e-30
8.5024e-07 1.0662e-29
8.5095e-07 1.3661e-29
8.5166e-07 1.6567e-29
8.5237e-07 1.3204e-29
8.5308e-07 1.0021e-29
8.5379e-07 1.1014e-29
8.5451e-07 1.1028e-29
8.5522e-07 8.8941e-30
8.5593e-07 6.9406e-30
8.5665e-07 6.1082e-30
8.5736e-07 6.5429e-30
8.5808e-07 5.1442e-30
8.5879e-07 3.8578e-30
8.5951e-07 3.6491e-30
8.6023e-07 2.5655e-30
8.6094e-07 1.8741e-30
8.6166e-07 1.5801e-30
8.6238e-07 1.4051e-30
8.631e-07 1.1455e-30
8.6382e-07 7.5021e-31
8.6454e-07 6.2489e-31
8.6526e-07 5.3044e-31
8.6598e-07 3.6569e-31
8.6671e-07 2.9311e-31
8.6743e-07 3.3171e-31
8.6815e-07 3.2351e-31
8.6888e-07 3.1633e-31
8.696e-07 2.7494e-31
8.7033e-07 3.2784e-31
8.7105e-07 4.0992e-31
8.7178e-07 3.47e-31
8.7251e-07 3.1186e-31
8.7324e-07 5.246e-31
8.7396e-07 8.1453e-31
8.7469e-07 9.007e-31
8.7542e-07 1.105e-30
8.7615e-07 1.4712e-30
8.7688e-07 1.4627e-30
8.7762e-07 2.4518e-30
8.7835e-07 4.0031e-30
8.7908e-07 3.5627e-30
8.7981e-07 3.3703e-30
8.8055e-07 4.725e-30
8.8128e-07 6.0802e-30
8.8202e-07 6.9299e-30
8.8275e-07 7.1181e-30
8.8349e-07 6.5883e-30
8.8423e-07 5.4654e-30
8.8496e-07 7.6028e-30
8.857e-07 1.2967e-29
8.8644e-07 1.3739e-29
8.8718e-07 1.2514e-29
8.8792e-07 1.3884e-29
8.8866e-07 1.2221e-29
8.894e-07 1.1393e-29
8.9015e-07 1.5084e-29
8.9089e-07 1.7876e-29
8.9163e-07 2.2257e-29
8.9237e-07 4.5604e-29
8.9312e-07 8.1065e-29
8.9386e-07 1.0349e-28
8.9461e-07 1.4477e-28
8.9536e-07 2.0539e-28
8.961e-07 2.5632e-28
8.9685e-07 3.0483e-28
8.976e-07 3.0385e-28
8.9835e-07 3.4911e-28
8.991e-07 4.2646e-28
8.9985e-07 3.8055e-28
9.006e-07 3.5375e-28
9.0135e-07 3.4885e-28
9.021e-07 3.2049e-28
9.0285e-07 2.6204e-28
9.0361e-07 1.7283e-28
9.0436e-07 1.3377e-28
9.0512e-07 1.3621e-28
9.0587e-07 1.6802e-28
9.0663e-07 2.5874e-28
9.0738e-07 3.4042e-28
9.0814e-07 3.5915e-28
9.089e-07 3.5716e-28
9.0966e-07 3.6216e-28
9.1041e-07 3.4711e-28
9.1117e-07 3.2331e-28
9.1193e-07 3.0497e-28
9.1269e-07 3.5891e-28
9.1346e-07 4.4042e-28
9.1422e-07 3.9073e-28
9.1498e-07 3.8154e-28
9.1574e-07 4.2819e-28
9.1651e-07 3.8445e-28
9.1727e-07 3.7846e-28
9.1804e-07 3.877e-28
9.188e-07 3.0156e-28
9.1957e-07 2.1589e-28
9.2034e-07 1.722e-28
9.211e-07 1.8912e-28
9.2187e-07 2.0497e-28
9.2264e-07 1.834e-28
9.2341e-07 2.1338e-28
9.2418e-07 2.578e-28
9.2495e-07 2.5486e-28
9.2572e-07 2.3121e-28
9.265e-07 2.321e-28
9.2727e-07 3.0278e-28
9.2804e-07 4.6543e-28
9.2882e-07 6.1652e-28
9.2959e-07 7.139e-28
9.3037e-07 8.3815e-28
9.3114e-07 1.0178e-27
9.3192e-07 1.2536e-27
9.327e-07 1.4635e-27
9.3348e-07 1.6802e-27
9.3426e-07 1.7445e-27
9.3503e-07 1.5347e-27
9.3581e-07 1.45e-27
9.366e-07 1.4896e-27
9.3738e-07 1.5895e-27
9.3816e-07 1.4135e-27
9.3894e-07 9.3108e-28
9.3972e-07 7.051e-28
9.4051e-07 7.9273e-28
9.4129e-07 8.9168e-28
9.4208e-07 9.4552e-28
9.4286e-07 1.0176e-27
9.4365e-07 1.0939e-27
9.4444e-07 1.1684e-27
9.4523e-07 1.1198e-27
9.4601e-07 1.1378e-27
9.468e-07 1.1137e-27
9.4759e-07 1.0573e-27
9.4838e-07 9.9758e-28
9.4918e-07 9.8238e-28
9.4997e-07 1.0792e-27
9.5076e-07 9.2729e-28
9.5155e-07 9.1098e-28
9.5235e-07 1.1221e-27
9.5314e-07 1.0133e-27
9.5394e-07 8.5201e-28
9.5473e-07 9.1998e-28
9.5553e-07 9.6893e-28
9.5633e-07 9.2687e-28
9.5712e-07 8.2475e-28
9.5792e-07 7.2458e-28
9.5872e-07 8.3884e-28
9.5952e-07 9.6073e-28
9.6032e-07 8.2211e-28
9.6112e-07 6.9633e-28
9.6192e-07 7.0383e-28
9.6273e-07 6.7629e-28
9.6353e-07 6.0241e-28
9.6433e-07 5.9103e-28
9.6514e-07 5.8123e-28
9.6594e-07 5.8053e-28
9.6675e-07 5.1697e-28
9.6756e-07 3.4291e-28
9.6836e-07 2.5908e-28
9.6917e-07 2.3681e-28
9.6998e-07 2.1753e-28
9.7079e-07 1.9675e-28
9.716e-07 1.9946e-28
9.7241e-07 2.3305e-28
9.7322e-07 3.0383e-28
9.7403e-07 3.5141e-28
9.7484e-07 3.387e-28
9.7566e-07 3.637e-28
9.7647e-07 3.3839e-28
9.7729e-07 2.511e-28
9.781e-07 2.4139e-28
9.7892e-07 2.7097e-28
9.7973e-07 2.6788e-28
9.8055e-07 2.2221e-28
9.8137e-07 1.5863e-28
9.8219e-07 1.5705e-28
9.8301e-07 1.5535e-28
9.8383e-07 1.2612e-28
9.8465e-07 1.1723e-28
9.8547e-07 9.3267e-29
9.8629e-07 6.1634e-29
9.8711e-07 6.2109e-29
9.8794e-07 5.6986e-29
9.8876e-07 4.1069e-29
9.8959e-07 4.32e-29
9.9041e-07 4.3933e-29
9.9124e-07 3.1241e-29
9.9207e-07 2.9813e-29
9.9289e-07 3.6254e-29
9.9372e-07 2.5053e-29
9.9455e-07 1.4195e-29
9.9538e-07 1.2107e-29
9.9621e-07 1.1821e-29
9.9704e-07 1.1688e-29
9.9787e-07 1.2511e-29
9.9871e-07 1.3841e-29
9.9954e-07 1.4887e-29
1.0004e-06 1.4769e-29
1.0012e-06 2.1781e-29
1.002e-06 3.177e-29
1.0029e-06 2.4518e-29
1.0037e-06 1.4772e-29
1.0046e-06 1.5576e-29
1.0054e-06 1.4043e-29
1.0062e-06 1.113e-29
1.0071e-06 1.1747e-29
1.0079e-06 1.6421e-29
1.0087e-06 2.4715e-29
1.0096e-06 2.8656e-29
1.0104e-06 1.9438e-29
1.0113e-06 1.2228e-29
1.0121e-06 1.25e-29
1.013e-06 9.201e-30
1.0138e-06 6.9041e-30
1.0147e-06 9.4085e-30
1.0155e-06 9.4128e-30
1.0163e-06 7.9013e-30
1.0172e-06 7.7167e-30
1.018e-06 7.9495e-30
1.0189e-06 1.0754e-29
1.0197e-06 1.1996e-29
1.0206e-06 9.0626e-30
1.0214e-06 7.8589e-30
1.0223e-06 9.0768e-30
1.0232e-06 1.542e-29
1.024e-06 1.775e-29
1.0249e-06 1.0097e-29
1.0257e-06 5.5769e-30
1.0266e-06 7.5992e-30
1.0274e-06 9.8781e-30
1.0283e-06 8.6865e-30
1.0291e-06 5.7924e-30
1.03e-06 3.612e-30
