2.8e-07 -0
2.8023e-07 -0
2.8047e-07 -0
2.807e-07 -0
2.8094e-07 -0
2.8117e-07 -0
2.814e-07 -0
2.8164e-07 -0
2.8187e-07 -0
2.8211e-07 -0
2.8234e-07 -0
2.8258e-07 -0
2.8282e-07 -0
2.8305e-07 -0
2.8329e-07 -0
2.8352e-07 -0
2.8376e-07 -0
2.84e-07 -0
2.8423e-07 -0
2.8447e-07 -0
2.8471e-07 -0
2.8495e-07 -0
2.8518e-07 -0
2.8542e-07 -0
2.8566e-07 -0
2.859e-07 -0
2.8614e-07 -0
2.8638e-07 -0
2.8661e-07 -0
2.8685e-07 -0
2.8709e-07 -0
2.8733e-07 -0
2.8757e-07 -0
2.8781e-07 -0
2.8805e-07 -0
2.8829e-07 -0
2.8853e-07 -0
2.8877e-07 -0
2.8901e-07 -0
2.8926e-07 -0
2.895e-07 -0
2.8974e-07 -0
2.8998e-07 -0
2.9022e-07 -0
2.9046e-07 -0
2.9071e-07 -0
2.9095e-07 -0
2.9119e-07 -0
2.9143e-07 -0
2.9168e-07 -0
2.9192e-07 -0
2.9216e-07 -0
2.9241e-07 -0
2.9265e-07 -0
2.929e-07 -0
2.9314e-07 -0
2.9339e-07 -0
2.9363e-07 -0
2.9388e-07 -0
2.9412e-07 -0
2.9437e-07 -0
2.9461e-07 -0
2.9486e-07 -0
2.951e-07 -0
2.9535e-07 -0
2.956e-07 -0
2.9584e-07 -0
2.9609e-07 -0
2.9634e-07 -0
2.9658e-07 -0
2.9683e-07 -0
2.9708e-07 -0
2.9733e-07 -0
2.9757e-07 -0
2.9782e-07 -0
2.9807e-07 -0
2.9832e-07 -0
2.9857e-07 -0
2.9882e-07 -0
2.9907e-07 -0
2.9932e-07 -0
2.9957e-07 -0
2.9982e-07 -0
3.0007e-07 -0
3.0032e-07 -0
3.0057e-07 -0
3.0082e-07 -0
3.0107e-07 -0
3.0132e-07 -0
3.0157e-07 -0
3.0182e-07 -0
3.0207e-07 -0
3.0233e-07 -0
3.0258e-07 -0
3.0283e-07 -0
3.0308e-07 -0
3.0334e-07 -0
3.0359e-07 -0
3.0384e-07 -0
3.041e-07 -0
3.0435e-07 -0
3.046e-07 -0
3.0486e-07 -0
3.0511e-07 -0
3.0537e-07 -0
3.0562e-07 -0
3.0588e-07 -0
3.0613e-07 -0
3.0639e-07 -0
3.0664e-07 -0
3.069e-07 -0
3.0715e-07 -0
3.0741e-07 -0
3.0767e-07 -0
3.0792e-07 -0
3.0818e-07 -0
3.0844e-07 -0
3.087e-07 -0
3.0895e-07 -0
3.0921e-07 -0
3.0947e-07 -0
3.0973e-07 -0
3.0998e-07 -0
3.1024e-07 -0
3.105e-07 -0
3.1076e-07 -0
3.1102e-07 -0
3.1128e-07 -0
3.1154e-07 -0
3.118e-07 -0
3.1206e-07 -0
3.1232e-07 -0
3.1258e-07 -0
3.1284e-07 -0
3.131e-07 -0
3.1336e-07 -0
3.1362e-07 -0
3.1389e-07 -0
3.1415e-07 -0
3.1441e-07 -0
3.1467e-07 -0
3.1494e-07 -0
3.152e-07 -0
3.1546e-07 -0
3.1572e-07 -0
3.1599e-07 -0
3.1625e-07 -0
3.1651e-07 -0
3.1678e-07 -0
3.1704e-07 -0
3.1731e-07 -0
3.1757e-07 -0
3.1784e-07 -0
3.181e-07 -0
3.1837e-07 -0
3.1863e-07 -0
3.189e-07 -0
3.1917e-07 -0
3.1943e-07 -0
3.197e-07 -0
3.1996e-07 -0
3.2023e-07 -0
3.205e-07 -0
3.2077e-07 -0
3.2103e-07 -0
3.213e-07 -0
3.2157e-07 -0
3.2184e-07 -0
3.2211e-07 -0
3.2238e-07 -0
3.2264e-07 -0
3.2291e-07 -0
3.2318e-07 -0
3.2345e-07 -0
3.2372e-07 -0
3.2399e-07 -0
3.2426e-07 -0
3.2453e-07 -0
3.248e-07 -0
3.2507e-07 -0
3.2535e-07 -0
3.2562e-07 -0
3.2589e-07 -0
3.2616e-07 -0
3.2643e-07 -0
3.2671e-07 -0
3.2698e-07 -0
3.2725e-07 -0
3.2752e-07 -0
3.278e-07 -0
3.2807e-07 -0
3.2834e-07 -0
3.2862e-07 -0
3.2889e-07 -0
3.2917e-07 -0
3.2944e-07 -0
3.2972e-07 -0
3.2999e-07 -0
3.3027e-07 -0
3.3054e-07 -0
3.3082e-07 -0
3.3109e-07 -0
3.3137e-07 -0
3.3165e-07 -0
3.3192e-07 -0
3.322e-07 -0
3.3248e-07 -0
3.3275e-07 -0
3.3303e-07 -0
3.3331e-07 -0
3.3359e-07 -0
3.3387e-07 -0
3.3414e-07 -0
3.3442e-07 -0
3.347e-07 -0
3.3498e-07 -0
3.3526e-07 -0
3.3554e-07 -0
3.3582e-07 -0
3.361e-07 -0
3.3638e-07 -0
3.3666e-07 -0
3.3694e-07 -0
3.3722e-07 -0
3.375e-07 -0
3.3779e-07 -0
3.3807e-07 -0
3.3835e-07 -0
3.3863e-07 -0
3.3891e-07 -0
3.392e-07 -0
3.3948e-07 -0
3.3976e-07 -0
3.4005e-07 -0
3.4033e-07 -0
3.4061e-07 -0
3.409e-07 -0
3.4118e-07 -0
3.4147e-07 -0
3.4175e-07 -0
3.4204e-07 -0
3.4232e-07 -0
3.4261e-07 -0
3.4289e-07 -0
3.4318e-07 -0
3.4347e-07 -0
3.4375e-07 -0
3.4404e-07 -0
3.4433e-07 -0
3.4461e-07 -0
3.449e-07 -0
3.4519e-07 -0
3.4548e-07 -0
3.4577e-07 -0
3.4605e-07 -0
3.4634e-07 -0
3.4663e-07 -0
3.4692e-07 -0
3.4721e-07 -0
3.475e-07 -0
3.4779e-07 -0
3.4808e-07 -0
3.4837e-07 -0
3.4866e-07 -0
3.4895e-07 -0
3.4924e-07 -0
3.4953e-07 -0
3.4983e-07 -0
3.5012e-07 -0
3.5041e-07 -0
3.507e-07 -0
3.5099e-07 -0
3.5129e-07 -0
3.5158e-07 -0
3.5187e-07 -0
3.5217e-07 -0
3.5246e-07 -0
3.5276e-07 -0
3.5305e-07 -0
3.5334e-07 -0
3.5364e-07 -0
3.5393e-07 -0
3.5423e-07 -0
3.5452e-07 -0
3.5482e-07 -0
3.5512e-07 -0
3.5541e-07 -0
3.5571e-07 -0
3.5601e-07 -0
3.563e-07 -0
3.566e-07 -0
3.569e-07 -0
3.572e-07 -0
3.5749e-07 -0
3.5779e-07 -0
3.5809e-07 -0
3.5839e-07 -0
3.5869e-07 -0
3.5899e-07 -0
3.5929e-07 -0
3.5959e-07 -0
3.5989e-07 -0
3.6019e-07 -0
3.6049e-07 -0
3.6079e-07 -0
3.6109e-07 -0
3.6139e-07 -0
3.6169e-07 -0
3.6199e-07 -0
3.623e-07 -0
3.626e-07 -0
3.629e-07 -0
3.632e-07 -0
3.6351e-07 -0
3.6381e-07 -0
3.6411e-07 -0
3.6442e-07 -0
3.6472e-07 -0
3.6502e-07 -0
3.6533e-07 -0
3.6563e-07 -0
3.6594e-07 -0
3.6624e-07 -0
3.6655e-07 -0
3.6686e-07 -0
3.6716e-07 -0
3.6747e-07 -0
3.6777e-07 -0
3.6808e-07 -0
3.6839e-07 -0
3.687e-07 -0
3.69e-07 -0
3.6931e-07 -0
3.6962e-07 -0
3.6993e-07 -0
3.7024e-07 -0
3.7054e-07 -0
3.7085e-07 -0
3.7116e-07 -0
3.7147e-07 -0
3.7178e-07 -0
3.7209e-07 -0
3.724e-07 -0
3.7271e-07 -0
3.7302e-07 -0
3.7334e-07 -0
3.7365e-07 -0
3.7396e-07 -0
3.7427e-07 -0
3.7458e-07 -0
3.749e-07 -0
3.7521e-07 -0
3.7552e-07 -0
3.7583e-07 -0
3.7615e-07 -0
3.7646e-07 -0
3.7678e-07 -0
3.7709e-07 -0
3.7741e-07 -0
3.7772e-07 -0
3.7804e-07 -0
3.7835e-07 -0
3.7867e-07 -0
3.7898e-07 -0
3.793e-07 -0
3.7961e-07 -0
3.7993e-07 -0
3.8025e-07 -0
3.8057e-07 -0
3.8088e-07 -0
3.812e-07 -0
3.8152e-07 -0
3.8184e-07 -0
3.8216e-07 -0
3.8247e-07 -0
3.8279e-07 -0
3.8311e-07 -0
3.8343e-07 -0
3.8375e-07 -0
3.8407e-07 -0
3.8439e-07 -0
3.8471e-07 -0
3.8503e-07 -0
3.8536e-07 8.0698e-40
3.8568e-07 2.9023e-38
3.86e-07 1.4697e-37
3.8632e-07 4.2699e-37
3.8664e-07 9.9127e-37
3.8697e-07 2.1005e-36
3.8729e-07 4.0569e-36
3.8761e-07 7.2319e-36
3.8793e-07 1.2538e-35
3.8826e-07 2.4835e-35
3.8858e-07 2.4535e-33
3.8891e-07 8.1794e-33
3.8923e-07 1.5909e-32
3.8956e-07 2.6856e-32
3.8988e-07 4.8783e-32
3.9021e-07 7.719e-32
3.9053e-07 9.5155e-32
3.9086e-07 1.0505e-31
3.9118e-07 9.1761e-32
3.9151e-07 7.3567e-32
3.9184e-07 5.1726e-32
3.9216e-07 5.1682e-32
3.9249e-07 6.6589e-32
3.9282e-07 7.6552e-32
3.9315e-07 6.9888e-32
3.9347e-07 4.6501e-32
3.938e-07 2.7992e-32
3.9413e-07 1.1798e-32
3.9446e-07 1.322e-32
3.9479e-07 3.0352e-32
3.9512e-07 4.3771e-32
3.9545e-07 4.8765e-32
3.9578e-07 6.5175e-32
3.9611e-07 1.5635e-31
3.9644e-07 2.9034e-31
3.9677e-07 4.2812e-31
3.971e-07 7.26e-31
3.9743e-07 8.4917e-31
3.9776e-07 5.5579e-31
3.9809e-07 3.7734e-31
3.9843e-07 4.2974e-31
3.9876e-07 4.5556e-31
3.9909e-07 4.5294e-31
3.9942e-07 4.5969e-31
3.9976e-07 4.6938e-31
4.0009e-07 3.8846e-31
4.0042e-07 3.1365e-31
4.0076e-07 2.7002e-31
4.0109e-07 2.0593e-31
4.0143e-07 1.6536e-31
4.0176e-07 1.5343e-31
4.021e-07 1.3833e-31
4.0243e-07 1.082e-31
4.0277e-07 8.6417e-32
4.031e-07 7.8798e-32
4.0344e-07 6.0757e-32
4.0378e-07 4.7038e-32
4.0411e-07 4.9044e-32
4.0445e-07 4.9129e-32
4.0479e-07 3.594e-32
4.0513e-07 2.5862e-32
4.0546e-07 2.1401e-32
4.058e-07 1.2881e-32
4.0614e-07 1.0094e-32
4.0648e-07 1.0013e-32
4.0682e-07 4.4649e-33
4.0716e-07 2.7196e-33
4.075e-07 5.095e-33
4.0784e-07 5.1237e-33
4.0818e-07 6.3978e-33
4.0852e-07 1.0598e-32
4.0886e-07 8.1551e-33
4.092e-07 3.07e-33
4.0954e-07 2.3061e-35
4.0988e-07 7.7817e-36
4.1023e-07 7.7306e-36
4.1057e-07 1.389e-35
4.1091e-07 1.7945e-33
4.1125e-07 3.6262e-33
4.116e-07 2.1502e-33
4.1194e-07 5.3736e-33
4.1228e-07 1.7354e-32
4.1263e-07 3.0097e-32
4.1297e-07 3.5605e-32
4.1332e-07 3.5208e-32
4.1366e-07 3.2103e-32
4.1401e-07 3.822e-32
4.1435e-07 6.3175e-32
4.147e-07 1.1494e-31
4.1504e-07 1.9377e-31
4.1539e-07 2.3655e-31
4.1574e-07 2.7296e-31
4.1608e-07 3.6818e-31
4.1643e-07 5.3516e-31
4.1678e-07 5.8343e-31
4.1712e-07 3.6654e-31
4.1747e-07 2.0675e-31
4.1782e-07 2.1832e-31
4.1817e-07 2.5566e-31
4.1852e-07 2.3746e-31
4.1887e-07 2.1876e-31
4.1922e-07 2.0056e-31
4.1957e-07 1.7445e-31
4.1992e-07 1.2416e-31
4.2027e-07 8.7136e-32
4.2062e-07 6.8765e-32
4.2097e-07 5.0982e-32
4.2132e-07 4.181e-32
4.2167e-07 3.2173e-32
4.2202e-07 2.4808e-32
4.2238e-07 1.7704e-32
4.2273e-07 1.1018e-32
4.2308e-07 7.6931e-33
4.2343e-07 5.1117e-33
4.2379e-07 2.8527e-33
4.2414e-07 2.3455e-33
4.2449e-07 1.3348e-32
4.2485e-07 4.0999e-32
4.252e-07 5.895e-32
4.2556e-07 7.5228e-32
4.2591e-07 1.2315e-31
4.2627e-07 1.4853e-31
4.2662e-07 9.8355e-32
4.2698e-07 6.0359e-32
4.2733e-07 7.346e-32
4.2769e-07 8.1679e-32
4.2805e-07 6.7688e-32
4.2841e-07 6.1737e-32
4.2876e-07 6.9891e-32
4.2912e-07 7.2435e-32
4.2948e-07 5.5322e-32
4.2984e-07 3.8954e-32
4.302e-07 3.5696e-32
4.3055e-07 2.2985e-32
4.3091e-07 9.4998e-33
4.3127e-07 6.8564e-33
4.3163e-07 6.4781e-33
4.3199e-07 4.8492e-33
4.3235e-07 2.9908e-33
4.3271e-07 1.9833e-33
4.3307e-07 1.1451e-33
4.3344e-07 2.7576e-34
4.338e-07 4.3941e-36
4.3416e-07 3.6915e-36
4.3452e-07 4.8929e-36
4.3488e-07 2.0577e-35
4.3525e-07 2.21e-33
4.3561e-07 6.0019e-33
4.3597e-07 6.316e-33
4.3634e-07 2.8186e-33
4.367e-07 4.5636e-34
4.3707e-07 6.405e-35
4.3743e-07 4.218e-33
4.3779e-07 1.1441e-32
4.3816e-07 1.8808e-32
4.3853e-07 3.5862e-32
4.3889e-07 9.1675e-32
4.3926e-07 1.3147e-31
4.3962e-07 1.5523e-31
4.3999e-07 2.1246e-31
4.4036e-07 2.6499e-31
4.4073e-07 3.2368e-31
4.4109e-07 5.6153e-31
4.4146e-07 9.6412e-31
4.4183e-07 1.1538e-30
4.422e-07 1.7189e-30
4.4257e-07 3.0786e-30
4.4294e-07 3.4752e-30
4.4331e-07 2.3808e-30
4.4368e-07 1.3236e-30
4.4405e-07 1.2654e-30
4.4442e-07 1.6251e-30
4.4479e-07 1.9012e-30
4.4516e-07 1.8519e-30
4.4553e-07 1.8192e-30
4.459e-07 1.7865e-30
4.4627e-07 1.4321e-30
4.4664e-07 1.117e-30
4.4702e-07 9.8964e-31
4.4739e-07 8.4944e-31
4.4776e-07 6.7008e-31
4.4814e-07 4.9424e-31
4.4851e-07 3.9574e-31
4.4889e-07 3.2779e-31
4.4926e-07 2.1934e-31
4.4963e-07 1.5647e-31
4.5001e-07 1.1024e-31
4.5038e-07 9.1112e-32
4.5076e-07 7.7502e-32
4.5114e-07 4.8105e-32
4.5151e-07 2.521e-32
4.5189e-07 2.0085e-32
4.5227e-07 3.0702e-32
4.5264e-07 5.4557e-32
4.5302e-07 7.4772e-32
4.534e-07 6.0252e-32
4.5378e-07 3.3593e-32
4.5416e-07 3.7707e-32
4.5454e-07 6.1454e-32
4.5491e-07 6.3996e-32
4.5529e-07 5.7603e-32
4.5567e-07 6.1875e-32
4.5605e-07 6.7585e-32
4.5643e-07 8.2929e-32
4.5682e-07 9.5566e-32
4.572e-07 6.9223e-32
4.5758e-07 3.9074e-32
4.5796e-07 4.4597e-32
4.5834e-07 5.1889e-32
4.5872e-07 4.8045e-32
4.5911e-07 4.1959e-32
4.5949e-07 3.3575e-32
4.5987e-07 3.0272e-32
4.6026e-07 2.6775e-32
4.6064e-07 1.6796e-32
4.6102e-07 1.0037e-32
4.6141e-07 6.5513e-33
4.6179e-07 2.5896e-33
4.6218e-07 3.324e-33
4.6256e-07 5.6736e-33
4.6295e-07 3.4415e-33
4.6334e-07 1.3034e-33
4.6372e-07 5.4422e-33
4.6411e-07 9.7154e-33
4.645e-07 8.7003e-33
4.6489e-07 8.144e-33
4.6527e-07 1.445e-32
4.6566e-07 3.6879e-32
4.6605e-07 9.215e-32
4.6644e-07 2.1064e-31
4.6683e-07 4.0906e-31
4.6722e-07 5.8235e-31
4.6761e-07 5.6372e-31
4.68e-07 4.6302e-31
4.6839e-07 5.5927e-31
4.6878e-07 7.7207e-31
4.6917e-07 1.0092e-30
4.6956e-07 1.3966e-30
4.6995e-07 1.4616e-30
4.7034e-07 1.0147e-30
4.7074e-07 8.9178e-31
4.7113e-07 9.0166e-31
4.7152e-07 7.2789e-31
4.7192e-07 6.4801e-31
4.7231e-07 7.8753e-31
4.727e-07 7.9578e-31
4.731e-07 7.6852e-31
4.7349e-07 6.543e-31
4.7389e-07 4.8058e-31
4.7428e-07 4.3559e-31
4.7468e-07 3.8193e-31
4.7507e-07 2.6274e-31
4.7547e-07 1.9728e-31
4.7587e-07 1.7374e-31
4.7626e-07 1.4756e-31
4.7666e-07 1.1861e-31
4.7706e-07 8.8662e-32
4.7746e-07 5.8276e-32
4.7786e-07 4.0044e-32
4.7825e-07 2.6693e-32
4.7865e-07 1.857e-32
4.7905e-07 1.11e-32
4.7945e-07 3.2926e-33
4.7985e-07 6.0003e-34
4.8025e-07 3.6189e-34
4.8065e-07 9.7515e-35
4.8105e-07 1.5164e-33
4.8146e-07 4.2957e-33
4.8186e-07 8.9994e-33
4.8226e-07 1.568e-32
4.8266e-07 2.6873e-32
4.8306e-07 6.223e-32
4.8347e-07 1.2988e-31
4.8387e-07 2.3639e-31
4.8427e-07 4.6552e-31
4.8468e-07 9.1302e-31
4.8508e-07 1.308e-30
4.8549e-07 1.2623e-30
4.8589e-07 9.2648e-31
4.863e-07 6.9359e-31
4.867e-07 7.5729e-31
4.8711e-07 9.2215e-31
4.8752e-07 9.1477e-31
4.8792e-07 8.7338e-31
4.8833e-07 7.662e-31
4.8874e-07 8.2498e-31
4.8914e-07 9.5971e-31
4.8955e-07 8.0729e-31
4.8996e-07 5.7594e-31
4.9037e-07 5.1142e-31
4.9078e-07 4.8617e-31
4.9119e-07 4.3846e-31
4.916e-07 3.787e-31
4.9201e-07 2.8826e-31
4.9242e-07 2.6559e-31
4.9283e-07 2.194e-31
4.9324e-07 1.5596e-31
4.9365e-07 1.1002e-31
4.9406e-07 8.3951e-32
4.9448e-07 6.7027e-32
4.9489e-07 4.9192e-32
4.953e-07 3.4797e-32
4.9571e-07 2.7861e-32
4.9613e-07 2.5732e-32
4.9654e-07 2.2664e-32
4.9696e-07 3.306e-32
4.9737e-07 5.3963e-32
4.9779e-07 1.0892e-31
4.982e-07 2.315e-31
4.9862e-07 3.5981e-31
4.9903e-07 4.8523e-31
4.9945e-07 6.4436e-31
4.9986e-07 8.5976e-31
5.0028e-07 1.1135e-30
5.007e-07 1.3448e-30
5.0112e-07 1.9341e-30
5.0154e-07 3.1745e-30
5.0195e-07 3.8313e-30
5.0237e-07 4.4058e-30
5.0279e-07 5.777e-30
5.0321e-07 1.0215e-29
5.0363e-07 1.6547e-29
5.0405e-07 1.8452e-29
5.0447e-07 1.4404e-29
5.0489e-07 8.4827e-30
5.0531e-07 6.8412e-30
5.0573e-07 9.1306e-30
5.0616e-07 9.3341e-30
5.0658e-07 8.6818e-30
5.07e-07 9.8991e-30
5.0742e-07 1.0803e-29
5.0785e-07 9.8427e-30
5.0827e-07 8.1605e-30
5.087e-07 6.7929e-30
5.0912e-07 5.8648e-30
5.0954e-07 5.5003e-30
5.0997e-07 4.6192e-30
5.104e-07 3.4787e-30
5.1082e-07 2.7187e-30
5.1125e-07 2.2722e-30
5.1167e-07 1.7761e-30
5.121e-07 1.4423e-30
5.1253e-07 1.2059e-30
5.1296e-07 8.6986e-31
5.1338e-07 6.2506e-31
5.1381e-07 4.2575e-31
5.1424e-07 3.0142e-31
5.1467e-07 2.5513e-31
5.151e-07 2.2306e-31
5.1553e-07 1.9466e-31
5.1596e-07 1.6154e-31
5.1639e-07 1.4816e-31
5.1682e-07 1.3453e-31
5.1725e-07 1.1349e-31
5.1768e-07 1.0266e-31
5.1811e-07 9.0853e-32
5.1855e-07 8.087e-32
5.1898e-07 7.9159e-32
5.1941e-07 7.5073e-32
5.1984e-07 6.2556e-32
5.2028e-07 5.1084e-32
5.2071e-07 4.7191e-32
5.2115e-07 4.8051e-32
5.2158e-07 6.049e-32
5.2202e-07 8.0977e-32
5.2245e-07 9.8462e-32
5.2289e-07 2.0024e-31
5.2332e-07 4.5525e-31
5.2376e-07 9.2802e-31
5.242e-07 1.4498e-30
5.2464e-07 1.5434e-30
5.2507e-07 1.2266e-30
5.2551e-07 7.6664e-31
5.2595e-07 3.9826e-31
5.2639e-07 5.4045e-31
5.2683e-07 9.9154e-31
5.2727e-07 1.0251e-30
5.2771e-07 6.9686e-31
5.2815e-07 5.5091e-31
5.2859e-07 6.614e-31
5.2903e-07 7.3462e-31
5.2947e-07 7.0275e-31
5.2991e-07 7.3176e-31
5.3035e-07 7.441e-31
5.308e-07 6.9266e-31
5.3124e-07 5.5433e-31
5.3168e-07 4.5993e-31
5.3213e-07 4.1013e-31
5.3257e-07 3.7857e-31
5.3301e-07 2.9793e-31
5.3346e-07 2.1806e-31
5.339e-07 1.9474e-31
5.3435e-07 1.9391e-31
5.3479e-07 2.3733e-31
5.3524e-07 2.8683e-31
5.3569e-07 3.1908e-31
5.3613e-07 3.4841e-31
5.3658e-07 4.5052e-31
5.3703e-07 5.2674e-31
5.3748e-07 6.0434e-31
5.3793e-07 7.8804e-31
5.3837e-07 1.0099e-30
5.3882e-07 1.176e-30
5.3927e-07 1.6568e-30
5.3972e-07 2.3728e-30
5.4017e-07 3.2262e-30
5.4062e-07 5.3019e-30
5.4107e-07 7.6547e-30
5.4153e-07 8.1347e-30
5.4198e-07 7.0167e-30
5.4243e-07 5.6705e-30
5.4288e-07 4.6119e-30
5.4334e-07 5.4752e-30
5.4379e-07 6.4167e-30
5.4424e-07 5.3055e-30
5.447e-07 4.5958e-30
5.4515e-07 4.9566e-30
5.4561e-07 5.702e-30
5.4606e-07 7.2125e-30
5.4652e-07 7.0524e-30
5.4697e-07 5.1413e-30
5.4743e-07 3.7081e-30
5.4788e-07 3.1755e-30
5.4834e-07 2.6316e-30
5.488e-07 2.1988e-30
5.4926e-07 2.2494e-30
5.4972e-07 2.2844e-30
5.5017e-07 1.9228e-30
5.5063e-07 1.4709e-30
5.5109e-07 1.3067e-30
5.5155e-07 1.0008e-30
5.5201e-07 6.8797e-31
5.5247e-07 5.4361e-31
5.5293e-07 4.3216e-31
5.5339e-07 3.2391e-31
5.5386e-07 2.5429e-31
5.5432e-07 2.1612e-31
5.5478e-07 2.0685e-31
5.5524e-07 1.5784e-31
5.5571e-07 1.0738e-31
5.5617e-07 6.1599e-32
5.5663e-07 3.4679e-32
5.571e-07 5.0376e-32
5.5756e-07 8.4803e-32
5.5803e-07 1.2297e-31
5.5849e-07 1.681e-31
5.5896e-07 2.0127e-31
5.5943e-07 2.2823e-31
5.5989e-07 2.9947e-31
5.6036e-07 3.5875e-31
5.6083e-07 3.986e-31
5.613e-07 3.9362e-31
5.6176e-07 3.8885e-31
5.6223e-07 4.7548e-31
5.627e-07 5.4083e-31
5.6317e-07 4.2509e-31
5.6364e-07 3.362e-31
5.6411e-07 4.1243e-31
5.6458e-07 4.7897e-31
5.6505e-07 5.0671e-31
5.6552e-07 5.1382e-31
5.66e-07 6.9138e-31
5.6647e-07 1.1398e-30
5.6694e-07 1.7668e-30
5.6741e-07 2.929e-30
5.6789e-07 5.8718e-30
5.6836e-07 1.0745e-29
5.6883e-07 1.4973e-29
5.6931e-07 1.5476e-29
5.6978e-07 1.3829e-29
5.7026e-07 1.0357e-29
5.7074e-07 5.96e-30
5.7121e-07 4.5505e-30
5.7169e-07 7.3884e-30
5.7216e-07 1.0062e-29
5.7264e-07 9.7148e-30
5.7312e-07 8.7878e-30
5.736e-07 8.0484e-30
5.7408e-07 8.7295e-30
5.7456e-07 9.4965e-30
5.7503e-07 7.8192e-30
5.7551e-07 6.9474e-30
5.7599e-07 6.5343e-30
5.7647e-07 5.7961e-30
5.7696e-07 5.8478e-30
5.7744e-07 5.8196e-30
5.7792e-07 4.4844e-30
5.784e-07 3.2822e-30
5.7888e-07 2.7748e-30
5.7937e-07 2.5137e-30
5.7985e-07 2.1606e-30
5.8033e-07 1.947e-30
5.8082e-07 1.8781e-30
5.813e-07 1.9247e-30
5.8179e-07 2.0201e-30
5.8227e-07 2.1721e-30
5.8276e-07 2.2666e-30
5.8324e-07 2.5763e-30
5.8373e-07 2.8572e-30
5.8422e-07 3.047e-30
5.8471e-07 3.3163e-30
5.8519e-07 3.593e-30
5.8568e-07 4.6302e-30
5.8617e-07 6.7757e-30
5.8666e-07 9.6773e-30
5.8715e-07 1.3859e-29
5.8764e-07 2.3694e-29
5.8813e-07 4.2023e-29
5.8862e-07 6.417e-29
5.8911e-07 7.4849e-29
5.896e-07 7.5779e-29
5.9009e-07 7.3903e-29
5.9059e-07 6.2922e-29
5.9108e-07 5.4625e-29
5.9157e-07 6.1722e-29
5.9206e-07 7.3178e-29
5.9256e-07 6.5283e-29
5.9305e-07 4.2646e-29
5.9355e-07 3.7921e-29
5.9404e-07 5.6195e-29
5.9454e-07 7.652e-29
5.9503e-07 6.7691e-29
5.9553e-07 4.6674e-29
5.9603e-07 3.9124e-29
5.9652e-07 3.8102e-29
5.9702e-07 4.051e-29
5.9752e-07 3.7022e-29
5.9802e-07 2.9248e-29
5.9852e-07 2.4486e-29
5.9902e-07 2.2692e-29
5.9952e-07 2.0254e-29
6.0002e-07 1.5675e-29
6.0052e-07 1.1667e-29
6.0102e-07 8.6003e-30
6.0152e-07 7.4272e-30
6.0202e-07 6.0574e-30
6.0252e-07 4.4522e-30
6.0303e-07 3.5714e-30
6.0353e-07 2.5923e-30
6.0403e-07 1.7692e-30
6.0454e-07 1.4677e-30
6.0504e-07 1.1259e-30
6.0555e-07 8.8415e-31
6.0605e-07 7.0832e-31
6.0656e-07 4.9791e-31
6.0706e-07 3.7271e-31
6.0757e-07 3.254e-31
6.0808e-07 2.6179e-31
6.0858e-07 2.155e-31
6.0909e-07 1.7614e-31
6.096e-07 1.3673e-31
6.1011e-07 1.1614e-31
6.1062e-07 9.4525e-32
6.1113e-07 7.4271e-32
6.1164e-07 6.5764e-32
6.1215e-07 6.1025e-32
6.1266e-07 5.2905e-32
6.1317e-07 4.0154e-32
6.1368e-07 3.5933e-32
6.1419e-07 3.8992e-32
6.147e-07 4.6136e-32
6.1522e-07 4.9251e-32
6.1573e-07 4.5093e-32
6.1624e-07 5.0083e-32
6.1676e-07 5.8474e-32
6.1727e-07 6.0721e-32
6.1779e-07 7.3477e-32
6.183e-07 9.7297e-32
6.1882e-07 1.0381e-31
6.1933e-07 1.0471e-31
6.1985e-07 1.1449e-31
6.2037e-07 1.2099e-31
6.2089e-07 1.2015e-31
6.214e-07 1.3388e-31
6.2192e-07 1.5304e-31
6.2244e-07 1.7775e-31
6.2296e-07 2.1183e-31
6.2348e-07 2.7373e-31
6.24e-07 3.45e-31
6.2452e-07 5.7536e-31
6.2504e-07 9.9505e-31
6.2556e-07 1.7167e-30
6.2609e-07 3.0521e-30
6.2661e-07 5.2133e-30
6.2713e-07 8.0189e-30
6.2765e-07 1.0666e-29
6.2818e-07 1.1909e-29
6.287e-07 1.116e-29
6.2923e-07 9.7466e-30
6.2975e-07 7.2991e-30
6.3028e-07 3.912e-30
6.308e-07 2.1769e-30
6.3133e-07 5.1723e-30
6.3185e-07 9.6213e-30
6.3238e-07 9.9682e-30
6.3291e-07 7.2481e-30
6.3344e-07 5.5586e-30
6.3397e-07 5.2761e-30
6.3449e-07 6.0576e-30
6.3502e-07 6.1184e-30
6.3555e-07 5.3097e-30
6.3608e-07 4.9348e-30
6.3661e-07 4.7821e-30
6.3715e-07 4.8935e-30
6.3768e-07 4.441e-30
6.3821e-07 3.8522e-30
6.3874e-07 3.9272e-30
6.3927e-07 4.1041e-30
6.3981e-07 3.9416e-30
6.4034e-07 4.0413e-30
6.4088e-07 4.2574e-30
6.4141e-07 4.1072e-30
6.4195e-07 4.0221e-30
6.4248e-07 4.0756e-30
6.4302e-07 4.593e-30
6.4355e-07 5.4675e-30
6.4409e-07 6.3845e-30
6.4463e-07 7.8704e-30
6.4516e-07 1.0518e-29
6.457e-07 1.717e-29
6.4624e-07 2.7748e-29
6.4678e-07 3.9904e-29
6.4732e-07 5.5739e-29
6.4786e-07 6.7564e-29
6.484e-07 6.2223e-29
6.4894e-07 5.3116e-29
6.4948e-07 4.4085e-29
6.5003e-07 2.9229e-29
6.5057e-07 1.9144e-29
6.5111e-07 3.3632e-29
6.5165e-07 5.7494e-29
6.522e-07 5.0958e-29
6.5274e-07 2.8688e-29
6.5329e-07 2.2159e-29
6.5383e-07 2.3759e-29
6.5438e-07 2.8507e-29
6.5492e-07 3.6731e-29
6.5547e-07 3.6744e-29
6.5601e-07 3.1061e-29
6.5656e-07 2.7704e-29
6.5711e-07 2.7667e-29
6.5766e-07 2.574e-29
6.5821e-07 1.9902e-29
6.5876e-07 1.5378e-29
6.5931e-07 1.1548e-29
6.5986e-07 9.6642e-30
6.6041e-07 8.8056e-30
6.6096e-07 5.9626e-30
6.6151e-07 4.1765e-30
6.6206e-07 3.3071e-30
6.6261e-07 3.0189e-30
6.6317e-07 3.1546e-30
6.6372e-07 2.7437e-30
6.6427e-07 2.7545e-30
6.6483e-07 2.507e-30
6.6538e-07 1.9393e-30
6.6594e-07 1.6899e-30
6.6649e-07 1.5954e-30
6.6705e-07 1.2428e-30
6.676e-07 8.9304e-31
6.6816e-07 7.4244e-31
6.6872e-07 6.511e-31
6.6928e-07 4.8352e-31
6.6983e-07 3.3334e-31
6.7039e-07 2.7021e-31
6.7095e-07 1.9682e-31
6.7151e-07 1.3648e-31
6.7207e-07 1.3068e-31
6.7263e-07 1.2678e-31
6.7319e-07 8.5581e-32
6.7376e-07 6.8596e-32
6.7432e-07 8.5469e-32
6.7488e-07 8.298e-32
6.7544e-07 8.8232e-32
6.7601e-07 1.2217e-31
6.7657e-07 1.7514e-31
6.7714e-07 2.0088e-31
6.777e-07 2.4673e-31
6.7827e-07 3.4535e-31
6.7883e-07 4.1655e-31
6.794e-07 4.6747e-31
6.7996e-07 7.0075e-31
6.8053e-07 9.0592e-31
6.811e-07 9.8246e-31
6.8167e-07 1.2749e-30
6.8224e-07 1.755e-30
6.8281e-07 1.9573e-30
6.8338e-07 1.8858e-30
6.8395e-07 2.3447e-30
6.8452e-07 2.6992e-30
6.8509e-07 2.4337e-30
6.8566e-07 2.4713e-30
6.8623e-07 3.2947e-30
6.868e-07 4.0351e-30
6.8738e-07 3.4803e-30
6.8795e-07 2.3509e-30
6.8852e-07 2.061e-30
6.891e-07 2.5284e-30
6.8967e-07 3.2728e-30
6.9025e-07 5.1613e-30
6.9082e-07 8.6919e-30
6.914e-07 1.3812e-29
6.9198e-07 2.7898e-29
6.9255e-07 6.0692e-29
6.9313e-07 9.2462e-29
6.9371e-07 1.1874e-28
6.9429e-07 1.4151e-28
6.9487e-07 1.285e-28
6.9545e-07 1.099e-28
6.9603e-07 9.7056e-29
6.9661e-07 6.0677e-29
6.9719e-07 3.0128e-29
6.9777e-07 2.7964e-29
6.9835e-07 5.0522e-29
6.9894e-07 8.1964e-29
6.9952e-07 9.1664e-29
7.001e-07 8.7449e-29
7.0069e-07 8.4201e-29
7.0127e-07 8.1863e-29
7.0186e-07 8.3983e-29
7.0244e-07 8.4696e-29
7.0303e-07 7.0077e-29
7.0361e-07 5.3193e-29
7.042e-07 5.1161e-29
7.0479e-07 5.2683e-29
7.0538e-07 5.4461e-29
7.0596e-07 5.2554e-29
7.0655e-07 4.2931e-29
7.0714e-07 3.7443e-29
7.0773e-07 3.5851e-29
7.0832e-07 3.3705e-29
7.0891e-07 2.9811e-29
7.0951e-07 2.8542e-29
7.101e-07 2.9237e-29
7.1069e-07 2.7442e-29
7.1128e-07 2.3666e-29
7.1188e-07 2.1317e-29
7.1247e-07 2.3198e-29
7.1306e-07 2.6375e-29
7.1366e-07 2.6575e-29
7.1425e-07 3.1997e-29
7.1485e-07 4.1763e-29
7.1545e-07 5.114e-29
7.1604e-07 8.2551e-29
7.1664e-07 1.8428e-28
7.1724e-07 3.3249e-28
7.1784e-07 4.2564e-28
7.1844e-07 4.6421e-28
7.1904e-07 4.8361e-28
7.1964e-07 4.7863e-28
7.2024e-07 4.4498e-28
7.2084e-07 3.2371e-28
7.2144e-07 1.7063e-28
7.2204e-07 1.1572e-28
7.2264e-07 1.5639e-28
7.2324e-07 2.5918e-28
7.2385e-07 3.5972e-28
7.2445e-07 3.6919e-28
7.2506e-07 3.3879e-28
7.2566e-07 3.2917e-28
7.2627e-07 3.0444e-28
7.2687e-07 2.9566e-28
7.2748e-07 3.2567e-28
7.2809e-07 2.9727e-28
7.2869e-07 2.5747e-28
7.293e-07 2.7652e-28
7.2991e-07 2.7197e-28
7.3052e-07 2.6906e-28
7.3113e-07 2.6315e-28
7.3174e-07 2.1572e-28
7.3235e-07 1.5419e-28
7.3296e-07 1.2046e-28
7.3357e-07 1.0362e-28
7.3418e-07 7.8416e-29
7.348e-07 7.5151e-29
7.3541e-07 8.0127e-29
7.3602e-07 8.0631e-29
7.3664e-07 8.3609e-29
7.3725e-07 6.9553e-29
7.3787e-07 5.305e-29
7.3848e-07 5.0048e-29
7.391e-07 4.7554e-29
7.3971e-07 3.8096e-29
7.4033e-07 2.7551e-29
7.4095e-07 2.0585e-29
7.4157e-07 1.8227e-29
7.4218e-07 1.5434e-29
7.428e-07 1.2439e-29
7.4342e-07 7.9809e-30
7.4404e-07 5.8818e-30
7.4466e-07 5.2235e-30
7.4529e-07 4.2089e-30
7.4591e-07 3.6049e-30
7.4653e-07 2.816e-30
7.4715e-07 2.4186e-30
7.4778e-07 2.0312e-30
7.484e-07 1.56e-30
7.4902e-07 1.3451e-30
7.4965e-07 1.2956e-30
7.5027e-07 1.3262e-30
7.509e-07 1.2394e-30
7.5153e-07 9.9429e-31
7.5215e-07 7.6548e-31
7.5278e-07 5.6033e-31
7.5341e-07 4.7581e-31
7.5404e-07 5.2096e-31
7.5467e-07 4.3165e-31
7.553e-07 3.7772e-31
7.5593e-07 3.5871e-31
7.5656e-07 2.8019e-31
7.5719e-07 2.9445e-31
7.5782e-07 4.4822e-31
7.5845e-07 4.9225e-31
7.5908e-07 3.725e-31
7.5972e-07 2.6854e-31
7.6035e-07 2.4594e-31
7.6099e-07 2.3744e-31
7.6162e-07 2.1094e-31
7.6226e-07 1.4767e-31
7.6289e-07 9.7874e-32
7.6353e-07 9.4251e-32
7.6417e-07 8.3254e-32
7.648e-07 5.5044e-32
7.6544e-07 4.2527e-32
7.6608e-07 3.8006e-32
7.6672e-07 3.1026e-32
7.6736e-07 2.4767e-32
7.68e-07 2.2759e-32
7.6864e-07 2.5645e-32
7.6928e-07 3.1616e-32
7.6992e-07 4.0975e-32
7.7056e-07 4.7026e-32
7.7121e-07 6.8388e-32
7.7185e-07 9.4414e-32
7.7249e-07 1.1877e-31
7.7314e-07 1.3758e-31
7.7378e-07 1.5454e-31
7.7443e-07 1.7354e-31
7.7508e-07 2.075e-31
7.7572e-07 2.5154e-31
7.7637e-07 2.1813e-31
7.7702e-07 2.2868e-31
7.7766e-07 3.01e-31
7.7831e-07 3.4454e-31
7.7896e-07 4.9463e-31
7.7961e-07 6.626e-31
7.8026e-07 6.9832e-31
7.8091e-07 7.3149e-31
7.8157e-07 9.4374e-31
7.8222e-07 1.2678e-30
7.8287e-07 1.6231e-30
7.8352e-07 2.6429e-30
7.8418e-07 4.5437e-30
7.8483e-07 6.0723e-30
7.8549e-07 7.0802e-30
7.8614e-07 1.2559e-29
7.868e-07 2.2174e-29
7.8745e-07 2.7272e-29
7.8811e-07 3.0025e-29
7.8877e-07 4.129e-29
7.8943e-07 5.6586e-29
7.9008e-07 5.7415e-29
7.9074e-07 4.9148e-29
7.914e-07 4.4805e-29
7.9206e-07 4.4093e-29
7.9272e-07 4.1535e-29
7.9339e-07 2.9116e-29
7.9405e-07 1.5147e-29
7.9471e-07 1.4479e-29
7.9537e-07 3.1353e-29
7.9604e-07 5.6271e-29
7.967e-07 6.1507e-29
7.9736e-07 4.0574e-29
7.9803e-07 3.1458e-29
7.987e-07 3.2251e-29
7.9936e-07 3.6802e-29
8.0003e-07 4.7682e-29
8.007e-07 5.6267e-29
8.0136e-07 5.6703e-29
8.0203e-07 5.4646e-29
8.027e-07 5.6089e-29
8.0337e-07 5.3834e-29
8.0404e-07 5.0165e-29
8.0471e-07 4.2798e-29
8.0538e-07 2.9222e-29
8.0606e-07 2.4052e-29
8.0673e-07 2.6767e-29
8.074e-07 2.5922e-29
8.0807e-07 2.9825e-29
8.0875e-07 3.8727e-29
8.0942e-07 4.718e-29
8.101e-07 5.7147e-29
8.1077e-07 7.5101e-29
8.1145e-07 9.8624e-29
8.1213e-07 1.1964e-28
8.1281e-07 1.7607e-28
8.1348e-07 2.6e-28
8.1416e-07 3.1792e-28
8.1484e-07 3.6811e-28
8.1552e-07 4.2912e-28
8.162e-07 4.6729e-28
8.1688e-07 4.5652e-28
8.1756e-07 4.1208e-28
8.1825e-07 3.8619e-28
8.1893e-07 3.495e-28
8.1961e-07 3.0555e-28
8.203e-07 2.323e-28
8.2098e-07 1.3955e-28
8.2166e-07 1.499e-28
8.2235e-07 3.7123e-28
8.2304e-07 6.0074e-28
8.2372e-07 4.6323e-28
8.2441e-07 2.1669e-28
8.251e-07 1.4947e-28
8.2579e-07 1.7326e-28
8.2647e-07 1.7125e-28
8.2716e-07 2.0175e-28
8.2785e-07 2.7917e-28
8.2854e-07 2.9544e-28
8.2924e-07 2.6234e-28
8.2993e-07 2.3996e-28
8.3062e-07 2.1448e-28
8.3131e-07 2.093e-28
8.3201e-07 2.1904e-28
8.327e-07 1.9245e-28
8.334e-07 1.6774e-28
8.3409e-07 1.4909e-28
8.3479e-07 1.0727e-28
8.3548e-07 9.7629e-29
8.3618e-07 9.9785e-29
8.3688e-07 8.4835e-29
8.3758e-07 7.4676e-29
8.3827e-07 6.0262e-29
8.3897e-07 4.7691e-29
8.3967e-07 3.9887e-29
8.4037e-07 3.9023e-29
8.4107e-07 4.3449e-29
8.4178e-07 3.5658e-29
8.4248e-07 2.225e-29
8.4318e-07 2.2497e-29
8.4388e-07 2.4673e-29
8.4459e-07 1.8708e-29
8.4529e-07 1.1792e-29
8.46e-07 1.0285e-29
8.467e-07 8.3306e-30
8.4741e-07 7.8816e-30
8.4812e-07 1.0505e-29
8.4883e-07 1.1099e-29
8.4953e-07 1.0222e-29
8.5024e-07 1.0914e-29
8.5095e-07 1.4135e-29
8.5166e-07 1.7159e-29
8.5237e-07 1.3595e-29
8.5308e-07 1.0328e-29
8.5379e-07 1.1462e-29
8.5451e-07 1.1435e-29
8.5522e-07 9.1247e-30
8.5593e-07 7.1345e-30
8.5665e-07 6.2388e-30
8.5736e-07 6.633e-30
8.5808e-07 5.2099e-30
8.5879e-07 3.8976e-30
8.5951e-07 3.6817e-30
8.6023e-07 2.5889e-30
8.6094e-07 1.8906e-30
8.6166e-07 1.595e-30
8.6238e-07 1.4169e-30
8.631e-07 1.1533e-30
8.6382e-07 7.5399e-31
8.6454e-07 6.2545e-31
8.6526e-07 5.2913e-31
8.6598e-07 3.6507e-31
8.6671e-07 2.9337e-31
8.6743e-07 3.3278e-31
8.6815e-07 3.2739e-31
8.6888e-07 3.0192e-31
8.696e-07 2.7654e-31
8.7033e-07 3.298e-31
8.7105e-07 4.1185e-31
8.7178e-07 3.4799e-31
8.7251e-07 3.1323e-31
8.7324e-07 5.2804e-31
8.7396e-07 8.1931e-31
8.7469e-07 9.0496e-31
8.7542e-07 1.1092e-30
8.7615e-07 1.4751e-30
8.7688e-07 1.3814e-30
8.7762e-07 2.4928e-30
8.7835e-07 3.9226e-30
8.7908e-07 3.6018e-30
8.7981e-07 3.4221e-30
8.8055e-07 4.8113e-30
8.8128e-07 6.1893e-30
8.8202e-07 7.0707e-30
8.8275e-07 7.2671e-30
8.8349e-07 6.6967e-30
8.8423e-07 5.5662e-30
8.8496e-07 7.9252e-30
8.857e-07 1.3668e-29
8.8644e-07 1.4441e-29
8.8718e-07 1.3335e-29
8.8792e-07 1.5212e-29
8.8866e-07 1.3277e-29
8.894e-07 1.196e-29
8.9015e-07 1.5683e-29
8.9089e-07 1.8783e-29
8.9163e-07 2.3708e-29
8.9237e-07 5.2065e-29
8.9312e-07 9.5934e-29
8.9386e-07 1.266e-28
8.9461e-07 1.8455e-28
8.9536e-07 2.7514e-28
8.961e-07 3.6623e-28
8.9685e-07 4.4127e-28
8.976e-07 4.4083e-28
8.9835e-07 5.1833e-28
8.991e-07 6.4241e-28
8.9985e-07 5.7346e-28
9.006e-07 5.2697e-28
9.0135e-07 5.0855e-28
9.021e-07 4.6107e-28
9.0285e-07 3.8114e-28
9.0361e-07 2.3579e-28
9.0436e-07 1.7252e-28
9.0512e-07 1.7996e-28
9.0587e-07 2.2491e-28
9.0663e-07 3.5929e-28
9.0738e-07 4.8489e-28
9.0814e-07 5.1586e-28
9.089e-07 5.091e-28
9.0966e-07 4.9835e-28
9.1041e-07 4.7765e-28
9.1117e-07 4.4466e-28
9.1193e-07 4.1098e-28
9.1269e-07 4.8613e-28
9.1346e-07 6.0029e-28
9.1422e-07 5.2449e-28
9.1498e-07 5.0741e-28
9.1574e-07 5.8336e-28
9.1651e-07 5.069e-28
9.1727e-07 4.9325e-28
9.1804e-07 5.1703e-28
9.188e-07 4.0487e-28
9.1957e-07 2.9156e-28
9.2034e-07 2.2648e-28
9.211e-07 2.4256e-28
9.2187e-07 2.6916e-28
9.2264e-07 2.3639e-28
9.2341e-07 2.6102e-28
9.2418e-07 3.1522e-28
9.2495e-07 3.1141e-28
9.2572e-07 2.7827e-28
9.265e-07 2.7407e-28
9.2727e-07 3.7271e-28
9.2804e-07 6.0122e-28
9.2882e-07 8.123e-28
9.2959e-07 9.8093e-28
9.3037e-07 1.2005e-27
9.3114e-07 1.4954e-27
9.3192e-07 1.8643e-27
9.327e-07 2.1584e-27
9.3348e-07 2.4435e-27
9.3426e-07 2.6039e-27
9.3503e-07 2.3442e-27
9.3581e-07 2.1608e-27
9.366e-07 2.1587e-27
9.3738e-07 2.2881e-27
9.3816e-07 2.0773e-27
9.3894e-07 1.3759e-27
9.3972e-07 9.8045e-28
9.4051e-07 1.0692e-27
9.4129e-07 1.2039e-27
9.4208e-07 1.3127e-27
9.4286e-07 1.4932e-27
9.4365e-07 1.6484e-27
9.4444e-07 1.7649e-27
9.4523e-07 1.668e-27
9.4601e-07 1.6702e-27
9.468e-07 1.6207e-27
9.4759e-07 1.5472e-27
9.4838e-07 1.4829e-27
9.4918e-07 1.4618e-27
9.4997e-07 1.5903e-27
9.5076e-07 1.3401e-27
9.5155e-07 1.2809e-27
9.5235e-07 1.6113e-27
9.5314e-07 1.4497e-27
9.5394e-07 1.2123e-27
9.5473e-07 1.3216e-27
9.5553e-07 1.4094e-27
9.5633e-07 1.3722e-27
9.5712e-07 1.2227e-27
9.5792e-07 1.0618e-27
9.5872e-07 1.2193e-27
9.5952e-07 1.3812e-27
9.6032e-07 1.1494e-27
9.6112e-07 9.7543e-28
9.6192e-07 1.0027e-27
9.6273e-07 9.6276e-28
9.6353e-07 8.6003e-28
9.6433e-07 8.5677e-28
9.6514e-07 8.1085e-28
9.6594e-07 7.7882e-28
9.6675e-07 7.0804e-28
9.6756e-07 4.8506e-28
9.6836e-07 3.5e-28
9.6917e-07 3.0164e-28
9.6998e-07 2.7443e-28
9.7079e-07 2.6359e-28
9.716e-07 2.6831e-28
9.7241e-07 3.0851e-28
9.7322e-07 4.0612e-28
9.7403e-07 4.8234e-28
9.7484e-07 4.6744e-28
9.7566e-07 4.9607e-28
9.7647e-07 4.6032e-28
9.7729e-07 3.3703e-28
9.781e-07 3.2296e-28
9.7892e-07 3.6626e-28
9.7973e-07 3.658e-28
9.8055e-07 2.9962e-28
9.8137e-07 1.9912e-28
9.8219e-07 1.9337e-28
9.8301e-07 1.9666e-28
9.8383e-07 1.602e-28
9.8465e-07 1.441e-28
9.8547e-07 1.1228e-28
9.8629e-07 6.9697e-29
9.8711e-07 7.0305e-29
9.8794e-07 6.4133e-29
9.8876e-07 4.4393e-29
9.8959e-07 4.5487e-29
9.9041e-07 4.6652e-29
9.9124e-07 3.2671e-29
9.9207e-07 3.1353e-29
9.9289e-07 3.8588e-29
9.9372e-07 2.6859e-29
9.9455e-07 1.4489e-29
9.9538e-07 1.2335e-29
9.9621e-07 1.2252e-29
9.9704e-07 1.1985e-29
9.9787e-07 1.2917e-29
9.9871e-07 1.4365e-29
9.9954e-07 1.5482e-29
1.0004e-06 1.539e-29
1.0012e-06 2.3281e-29
1.002e-06 3.4118e-29
1.0029e-06 2.5969e-29
1.0037e-06 1.549e-29
1.0046e-06 1.6313e-29
1.0054e-06 1.4697e-29
1.0062e-06 1.159e-29
1.0071e-06 1.2209e-29
1.0079e-06 1.7319e-29
1.0087e-06 2.6253e-29
1.0096e-06 3.0142e-29
1.0104e-06 2.0323e-29
1.0113e-06 1.2633e-29
1.0121e-06 1.3045e-29
1.013e-06 9.5394e-30
1.0138e-06 7.0394e-30
1.0147e-06 9.667e-30
1.0155e-06 9.7576e-30
1.0163e-06 8.1429e-30
1.0172e-06 7.9149e-30
1.018e-06 8.2222e-30
1.0189e-06 1.129e-29
1.0197e-06 1.2549e-29
1.0206e-06 9.3471e-30
1.0214e-06 8.0313e-30
1.0223e-06 9.4315e-30
1.0232e-06 1.6217e-29
1.024e-06 1.8729e-29
1.0249e-06 1.0558e-29
1.0257e-06 5.6905e-30
1.0266e-06 7.8449e-30
1.0274e-06 1.0285e-29
1.0283e-06 9.0167e-30
1.0291e-06 5.9513e-30
1.03e-06 3.7263e-30
