2.8e-07 0
2.8019e-07 0
2.8037e-07 0
2.8056e-07 0
2.8075e-07 0
2.8094e-07 0
2.8112e-07 0
2.8131e-07 0
2.815e-07 0
2.8169e-07 0
2.8187e-07 0
2.8206e-07 0
2.8225e-07 0
2.8244e-07 0
2.8263e-07 0
2.8282e-07 0
2.8301e-07 0
2.8319e-07 0
2.8338e-07 0
2.8357e-07 0
2.8376e-07 0
2.8395e-07 0
2.8414e-07 0
2.8433e-07 0
2.8452e-07 0
2.8471e-07 0
2.849e-07 0
2.8509e-07 0
2.8528e-07 0
2.8547e-07 0
2.8566e-07 0
2.8585e-07 0
2.8604e-07 0
2.8623e-07 0
2.8642e-07 0
2.8662e-07 0
2.8681e-07 0
2.87e-07 0
2.8719e-07 0
2.8738e-07 0
2.8757e-07 0
2.8777e-07 0
2.8796e-07 0
2.8815e-07 0
2.8834e-07 0
2.8853e-07 0
2.8873e-07 0
2.8892e-07 0
2.8911e-07 0
2.8931e-07 0
2.895e-07 0
2.8969e-07 0
2.8989e-07 0
2.9008e-07 0
2.9027e-07 0
2.9047e-07 0
2.9066e-07 0
2.9085e-07 0
2.9105e-07 0
2.9124e-07 0
2.9144e-07 0
2.9163e-07 0
2.9183e-07 0
2.9202e-07 0
2.9222e-07 0
2.9241e-07 0
2.9261e-07 0
2.928e-07 0
2.93e-07 0
2.9319e-07 0
2.9339e-07 0
2.9358e-07 0
2.9378e-07 0
2.9398e-07 0
2.9417e-07 0
2.9437e-07 0
2.9456e-07 0
2.9476e-07 0
2.9496e-07 0
2.9515e-07 0
2.9535e-07 0
2.9555e-07 0
2.9575e-07 0
2.9594e-07 0
2.9614e-07 0
2.9634e-07 0
2.9654e-07 0
2.9673e-07 0
2.9693e-07 0
2.9713e-07 0
2.9733e-07 0
2.9753e-07 0
2.9773e-07 0
2.9792e-07 0
2.9812e-07 0
2.9832e-07 0
2.9852e-07 0
2.9872e-07 0
2.9892e-07 0
2.9912e-07 0
2.9932e-07 0
2.9952e-07 0
2.9972e-07 0
2.9992e-07 0
3.0012e-07 0
3.0032e-07 0
3.0052e-07 0
3.0072e-07 0
3.0092e-07 0
3.0112e-07 0
3.0132e-07 0
3.0152e-07 0
3.0173e-07 0
3.0193e-07 0
3.0213e-07 0
3.0233e-07 0
3.0253e-07 0
3.0273e-07 0
3.0294e-07 0
3.0314e-07 0
3.0334e-07 0
3.0354e-07 0
3.0375e-07 0
3.0395e-07 0
3.0415e-07 0
3.0435e-07 0
3.0456e-07 0
3.0476e-07 0
3.0496e-07 0
3.0517e-07 0
3.0537e-07 0
3.0557e-07 0
3.0578e-07 0
3.0598e-07 0
3.0619e-07 0
3.0639e-07 0
3.066e-07 0
3.068e-07 0
3.0701e-07 0
3.0721e-07 0
3.0742e-07 0
3.0762e-07 0
3.0783e-07 0
3.0803e-07 0
3.0824e-07 0
3.0844e-07 0
3.0865e-07 0
3.0885e-07 0
3.0906e-07 0
3.0927e-07 0
3.0947e-07 0
3.0968e-07 0
3.0989e-07 0
3.1009e-07 0
3.103e-07 0
3.1051e-07 0
3.1071e-07 0
3.1092e-07 0
3.1113e-07 0
3.1134e-07 0
3.1155e-07 0
3.1175e-07 0
3.1196e-07 0
3.1217e-07 0
3.1238e-07 0
3.1259e-07 0
3.1279e-07 0
3.13e-07 0
3.1321e-07 0
3.1342e-07 0
3.1363e-07 0
3.1384e-07 0
3.1405e-07 0
3.1426e-07 0
3.1447e-07 0
3.1468e-07 0
3.1489e-07 0
3.151e-07 0
3.1531e-07 0
3.1552e-07 0
3.1573e-07 0
3.1594e-07 0
3.1615e-07 0
3.1636e-07 0
3.1657e-07 0
3.1679e-07 0
3.17e-07 0
3.1721e-07 0
3.1742e-07 0
3.1763e-07 0
3.1784e-07 0
3.1806e-07 0
3.1827e-07 0
3.1848e-07 0
3.1869e-07 0
3.1891e-07 0
3.1912e-07 0
3.1933e-07 0
3.1955e-07 0
3.1976e-07 0
3.1997e-07 0
3.2019e-07 0
3.204e-07 0
3.2061e-07 0
3.2083e-07 0
3.2104e-07 0
3.2126e-07 0
3.2147e-07 0
3.2168e-07 0
3.219e-07 0
3.2211e-07 0
3.2233e-07 0
3.2254e-07 0
3.2276e-07 0
3.2297e-07 0
3.2319e-07 0
3.2341e-07 0
3.2362e-07 0
3.2384e-07 0
3.2405e-07 0
3.2427e-07 0
3.2449e-07 0
3.247e-07 0
3.2492e-07 0
3.2514e-07 0
3.2535e-07 0
3.2557e-07 0
3.2579e-07 0
3.2601e-07 0
3.2622e-07 0
3.2644e-07 0
3.2666e-07 0
3.2688e-07 0
3.271e-07 0
3.2731e-07 0
3.2753e-07 0
3.2775e-07 0
3.2797e-07 0
3.2819e-07 0
3.2841e-07 0
3.2863e-07 0
3.2885e-07 0
3.2907e-07 0
3.2928e-07 0
3.295e-07 0
3.2972e-07 0
3.2994e-07 0
3.3016e-07 0
3.3039e-07 0
3.3061e-07 0
3.3083e-07 0
3.3105e-07 0
3.3127e-07 0
3.3149e-07 0
3.3171e-07 0
3.3193e-07 0
3.3215e-07 0
3.3238e-07 0
3.326e-07 0
3.3282e-07 0
3.3304e-07 0
3.3326e-07 0
3.3349e-07 0
3.3371e-07 0
3.3393e-07 0
3.3415e-07 0
3.3438e-07 0
3.346e-07 0
3.3482e-07 0
3.3505e-07 0
3.3527e-07 0
3.3549e-07 0
3.3572e-07 0
3.3594e-07 0
3.3617e-07 0
3.3639e-07 0
3.3662e-07 0
3.3684e-07 0
3.3706e-07 0
3.3729e-07 0
3.3752e-07 0
3.3774e-07 0
3.3797e-07 0
3.3819e-07 0
3.3842e-07 0
3.3864e-07 0
3.3887e-07 0
3.391e-07 0
3.3932e-07 0
3.3955e-07 0
3.3977e-07 0
3.4e-07 0
3.4023e-07 0
3.4046e-07 0
3.4068e-07 0
3.4091e-07 0
3.4114e-07 0
3.4137e-07 0
3.4159e-07 0
3.4182e-07 0
3.4205e-07 0
3.4228e-07 0
3.4251e-07 0
3.4273e-07 0
3.4296e-07 0
3.4319e-07 0
3.4342e-07 0
3.4365e-07 0
3.4388e-07 0
3.4411e-07 0
3.4434e-07 0
3.4457e-07 0
3.448e-07 0
3.4503e-07 0
3.4526e-07 0
3.4549e-07 0
3.4572e-07 0
3.4595e-07 0
3.4618e-07 0
3.4641e-07 0
3.4664e-07 0
3.4688e-07 0
3.4711e-07 0
3.4734e-07 0
3.4757e-07 0
3.478e-07 0
3.4803e-07 0
3.4827e-07 0
3.485e-07 0
3.4873e-07 0
3.4896e-07 0
3.492e-07 0
3.4943e-07 0
3.4966e-07 0
3.499e-07 0
3.5013e-07 0
3.5036e-07 0
3.506e-07 0
3.5083e-07 0
3.5107e-07 0
3.513e-07 0
3.5154e-07 0
3.5177e-07 0
3.52e-07 0
3.5224e-07 0
3.5247e-07 0
3.5271e-07 0
3.5295e-07 0
3.5318e-07 0
3.5342e-07 0
3.5365e-07 0
3.5389e-07 0
3.5412e-07 0
3.5436e-07 0
3.546e-07 0
3.5483e-07 0
3.5507e-07 0
3.5531e-07 0
3.5555e-07 0
3.5578e-07 0
3.5602e-07 0
3.5626e-07 0
3.565e-07 0
3.5673e-07 0
3.5697e-07 0
3.5721e-07 0
3.5745e-07 0
3.5769e-07 0
3.5793e-07 0
3.5816e-07 0
3.584e-07 0
3.5864e-07 0
3.5888e-07 0
3.5912e-07 0
3.5936e-07 0
3.596e-07 0
3.5984e-07 0
3.6008e-07 0
3.6032e-07 0
3.6056e-07 0
3.608e-07 0
3.6104e-07 0
3.6128e-07 0
3.6153e-07 0
3.6177e-07 0
3.6201e-07 0
3.6225e-07 0
3.6249e-07 0
3.6273e-07 0
3.6298e-07 0
3.6322e-07 0
3.6346e-07 0
3.637e-07 0
3.6395e-07 0
3.6419e-07 0
3.6443e-07 0
3.6468e-07 0
3.6492e-07 0
3.6516e-07 0
3.6541e-07 0
3.6565e-07 0
3.6589e-07 0
3.6614e-07 0
3.6638e-07 0
3.6663e-07 0
3.6687e-07 0
3.6712e-07 0
3.6736e-07 0
3.6761e-07 0
3.6785e-07 0
3.681e-07 0
3.6834e-07 0
3.6859e-07 0
3.6884e-07 0
3.6908e-07 0
3.6933e-07 0
3.6957e-07 0
3.6982e-07 0
3.7007e-07 0
3.7031e-07 0
3.7056e-07 0
3.7081e-07 0
3.7106e-07 0
3.713e-07 0
3.7155e-07 0
3.718e-07 0
3.7205e-07 0
3.723e-07 0
3.7255e-07 0
3.7279e-07 0
3.7304e-07 0
3.7329e-07 0
3.7354e-07 0
3.7379e-07 0
3.7404e-07 0
3.7429e-07 0
3.7454e-07 0
3.7479e-07 0
3.7504e-07 0
3.7529e-07 0
3.7554e-07 0
3.7579e-07 0
3.7604e-07 0
3.7629e-07 0
3.7654e-07 0
3.7679e-07 0
3.7705e-07 0
3.773e-07 0
3.7755e-07 0
3.778e-07 0
3.7805e-07 0
3.7831e-07 0
3.7856e-07 0
3.7881e-07 0
3.7906e-07 0
3.7932e-07 0
3.7957e-07 0
3.7982e-07 0
3.8008e-07 0
3.8033e-07 0
3.8058e-07 0
3.8084e-07 0
3.8109e-07 0
3.8135e-07 0
3.816e-07 0
3.8186e-07 0
3.8211e-07 0
3.8237e-07 0
3.8262e-07 0
3.8288e-07 0
3.8313e-07 0
3.8339e-07 0
3.8364e-07 0
3.839e-07 0
3.8416e-07 0
3.8441e-07 0
3.8467e-07 0
3.8493e-07 0
3.8518e-07 1.02e-40
3.8544e-07 3.8251e-39
3.857e-07 2.7917e-38
3.8595e-07 1.0742e-37
3.8621e-07 2.7258e-37
3.8647e-07 5.6851e-37
3.8673e-07 1.0945e-36
3.8699e-07 1.9651e-36
3.8724e-07 3.3386e-36
3.875e-07 5.3627e-36
3.8776e-07 8.3825e-36
3.8802e-07 1.3256e-35
3.8828e-07 5.5875e-35
3.8854e-07 6.8122e-34
3.888e-07 6.1116e-33
3.8906e-07 7.0835e-33
3.8932e-07 1.7669e-32
3.8958e-07 2.8489e-32
3.8984e-07 4.63e-32
3.901e-07 6.8628e-32
3.9036e-07 8.2326e-32
3.9062e-07 9.7399e-32
3.9088e-07 1.0621e-31
3.9114e-07 1.0018e-31
3.914e-07 8.1225e-32
3.9166e-07 6.3644e-32
3.9192e-07 4.5474e-32
3.9218e-07 5.317e-32
3.9245e-07 6.1669e-32
3.9271e-07 7.2579e-32
3.9297e-07 7.7826e-32
3.9323e-07 6.5462e-32
3.935e-07 4.4246e-32
3.9376e-07 2.3759e-32
3.9402e-07 1.2655e-32
3.9428e-07 1.0118e-32
3.9455e-07 1.6262e-32
3.9481e-07 3.1762e-32
3.9507e-07 4.2607e-32
3.9534e-07 4.7278e-32
3.956e-07 5.5876e-32
3.9587e-07 7.7859e-32
3.9613e-07 1.5392e-31
3.9639e-07 2.8028e-31
3.9666e-07 3.699e-31
3.9692e-07 5.233e-31
3.9719e-07 8.2546e-31
3.9745e-07 8.7692e-31
3.9772e-07 5.7796e-31
3.9798e-07 3.879e-31
3.9825e-07 3.8971e-31
3.9852e-07 4.3491e-31
3.9878e-07 4.538e-31
3.9905e-07 4.6342e-31
3.9931e-07 4.5342e-31
3.9958e-07 4.6379e-31
3.9985e-07 4.4172e-31
4.0011e-07 3.8304e-31
4.0038e-07 3.3196e-31
4.0065e-07 2.814e-31
4.0092e-07 2.3285e-31
4.0118e-07 1.8979e-31
4.0145e-07 1.6697e-31
4.0172e-07 1.5108e-31
4.0199e-07 1.497e-31
4.0226e-07 1.2665e-31
4.0252e-07 9.4366e-32
4.0279e-07 8.6307e-32
4.0306e-07 8.2068e-32
4.0333e-07 6.5369e-32
4.036e-07 5.1001e-32
4.0387e-07 4.1922e-32
4.0414e-07 4.9884e-32
4.0441e-07 5.3745e-32
4.0468e-07 4.0875e-32
4.0495e-07 2.9738e-32
4.0522e-07 2.4756e-32
4.0549e-07 2.1526e-32
4.0576e-07 1.488e-32
4.0603e-07 1.0693e-32
4.063e-07 1.0585e-32
4.0657e-07 8.8776e-33
4.0684e-07 5.6052e-33
4.0712e-07 3.3489e-33
4.0739e-07 4.8192e-33
4.0766e-07 3.7755e-33
4.0793e-07 3.6997e-33
4.082e-07 4.9184e-33
4.0848e-07 9.7081e-33
4.0875e-07 7.4272e-33
4.0902e-07 6.2638e-33
4.0929e-07 1.9862e-33
4.0957e-07 1.317e-34
4.0984e-07 7.5039e-36
4.1011e-07 6.6669e-36
4.1039e-07 1.2625e-35
4.1066e-07 4.9678e-35
4.1094e-07 8.8539e-34
4.1121e-07 3.6001e-33
4.1149e-07 2.3483e-33
4.1176e-07 2.3167e-33
4.1203e-07 7.998e-33
4.1231e-07 1.8093e-32
4.1258e-07 2.8665e-32
4.1286e-07 3.6807e-32
4.1314e-07 3.6277e-32
4.1341e-07 3.4558e-32
4.1369e-07 3.1555e-32
4.1396e-07 3.22e-32
4.1424e-07 5.2299e-32
4.1452e-07 8.4729e-32
4.1479e-07 1.3054e-31
4.1507e-07 1.8828e-31
4.1535e-07 2.3543e-31
4.1562e-07 2.5478e-31
4.159e-07 3.0914e-31
4.1618e-07 4.0363e-31
4.1646e-07 5.4615e-31
4.1673e-07 6.1114e-31
4.1701e-07 4.3986e-31
4.1729e-07 2.483e-31
4.1757e-07 2.066e-31
4.1785e-07 2.3873e-31
4.1813e-07 2.496e-31
4.1841e-07 2.4183e-31
4.1869e-07 2.2822e-31
4.1897e-07 2.1231e-31
4.1924e-07 1.9873e-31
4.1952e-07 1.7854e-31
4.198e-07 1.3948e-31
4.2008e-07 9.7723e-32
4.2037e-07 8.1823e-32
4.2065e-07 6.8697e-32
4.2093e-07 5.2777e-32
4.2121e-07 4.6394e-32
4.2149e-07 3.538e-32
4.2177e-07 2.8208e-32
4.2205e-07 2.5381e-32
4.2233e-07 1.839e-32
4.2262e-07 1.4292e-32
4.229e-07 9.5703e-33
4.2318e-07 6.8137e-33
4.2346e-07 4.6198e-33
4.2374e-07 3.5557e-33
4.2403e-07 3.064e-33
4.2431e-07 3.2698e-33
4.2459e-07 2.1223e-32
4.2488e-07 4.2764e-32
4.2516e-07 5.9097e-32
4.2544e-07 6.3519e-32
4.2573e-07 9.0037e-32
4.2601e-07 1.4087e-31
4.263e-07 1.5167e-31
4.2658e-07 1.0211e-31
4.2687e-07 6.0783e-32
4.2715e-07 6.2517e-32
4.2744e-07 8.217e-32
4.2772e-07 8.172e-32
4.2801e-07 6.6016e-32
4.2829e-07 6.2111e-32
4.2858e-07 6.6304e-32
4.2886e-07 7.3839e-32
4.2915e-07 7.0835e-32
4.2944e-07 5.6965e-32
4.2972e-07 4.21e-32
4.3001e-07 3.6705e-32
4.303e-07 3.3146e-32
4.3058e-07 2.2344e-32
4.3087e-07 1.0925e-32
4.3116e-07 6.3053e-33
4.3145e-07 6.6571e-33
4.3174e-07 5.7316e-33
4.3202e-07 4.1791e-33
4.3231e-07 3.863e-33
4.326e-07 2.1609e-33
4.3289e-07 1.5561e-33
4.3318e-07 1.0933e-33
4.3347e-07 2.0321e-34
4.3376e-07 4.4049e-36
4.3405e-07 3.3446e-36
4.3434e-07 3.5694e-36
4.3463e-07 1.1913e-35
4.3492e-07 1.3887e-34
4.3521e-07 1.0127e-33
4.355e-07 4.2745e-33
4.3579e-07 6.2569e-33
4.3608e-07 6.3205e-33
4.3637e-07 3.0161e-33
4.3666e-07 1.6284e-33
4.3695e-07 5.7631e-35
4.3724e-07 5.9622e-34
4.3754e-07 5.6148e-33
4.3783e-07 1.3033e-32
4.3812e-07 1.7192e-32
4.3841e-07 2.9301e-32
4.387e-07 6.1021e-32
4.39e-07 1.0572e-31
4.3929e-07 1.3799e-31
4.3958e-07 1.4714e-31
4.3988e-07 1.8757e-31
4.4017e-07 2.4408e-31
4.4046e-07 2.7906e-31
4.4076e-07 3.3161e-31
4.4105e-07 5.0534e-31
4.4135e-07 8.4366e-31
4.4164e-07 1.1159e-30
4.4194e-07 1.2014e-30
4.4223e-07 1.6952e-30
4.4253e-07 2.929e-30
4.4282e-07 3.7121e-30
4.4312e-07 3.043e-30
4.4341e-07 1.8548e-30
4.4371e-07 1.2623e-30
4.44e-07 1.2616e-30
4.443e-07 1.5035e-30
4.446e-07 1.7177e-30
4.4489e-07 1.9157e-30
4.4519e-07 1.8802e-30
4.4549e-07 1.8447e-30
4.4579e-07 1.8194e-30
4.4608e-07 1.5554e-30
4.4638e-07 1.3687e-30
4.4668e-07 1.1348e-30
4.4698e-07 9.7448e-31
4.4728e-07 9.0249e-31
4.4757e-07 7.591e-31
4.4787e-07 6.1245e-31
4.4817e-07 4.6639e-31
4.4847e-07 4.0832e-31
4.4877e-07 3.4696e-31
4.4907e-07 2.7361e-31
4.4937e-07 2.1907e-31
4.4967e-07 1.4987e-31
4.4997e-07 1.118e-31
4.5027e-07 9.7967e-32
4.5057e-07 7.9002e-32
4.5087e-07 6.5653e-32
4.5117e-07 4.6633e-32
4.5147e-07 2.4365e-32
4.5177e-07 2.0251e-32
4.5208e-07 2.215e-32
4.5238e-07 3.2773e-32
4.5268e-07 5.5843e-32
4.5298e-07 7.8242e-32
4.5328e-07 7.2061e-32
4.5359e-07 4.0848e-32
4.5389e-07 2.7218e-32
4.5419e-07 4.2036e-32
4.545e-07 6.2474e-32
4.548e-07 6.5544e-32
4.551e-07 5.9129e-32
4.5541e-07 5.5276e-32
4.5571e-07 6.1447e-32
4.5601e-07 6.8583e-32
4.5632e-07 7.3347e-32
4.5662e-07 9.2081e-32
4.5693e-07 9.8587e-32
4.5723e-07 6.4928e-32
4.5754e-07 3.697e-32
4.5784e-07 4.0485e-32
4.5815e-07 5.2276e-32
4.5846e-07 5.2042e-32
4.5876e-07 4.5955e-32
4.5907e-07 4.1687e-32
4.5937e-07 3.2812e-32
4.5968e-07 2.6677e-32
4.5999e-07 3.0459e-32
4.6029e-07 2.8464e-32
4.606e-07 1.4023e-32
4.6091e-07 9.9615e-33
4.6122e-07 9.6004e-33
4.6152e-07 4.9246e-33
4.6183e-07 2.2016e-33
4.6214e-07 1.8327e-33
4.6245e-07 5.828e-33
4.6276e-07 5.3692e-33
4.6307e-07 2.1792e-33
4.6338e-07 2.5417e-33
4.6368e-07 4.428e-33
4.6399e-07 1.0954e-32
4.643e-07 7.8614e-33
4.6461e-07 9.5149e-33
4.6492e-07 9.1059e-33
4.6523e-07 1.1017e-32
4.6554e-07 2.6717e-32
4.6586e-07 6.038e-32
4.6617e-07 1.203e-31
4.6648e-07 2.1911e-31
4.6679e-07 3.8217e-31
4.671e-07 5.5536e-31
4.6741e-07 6.095e-31
4.6772e-07 5.3414e-31
4.6804e-07 4.5735e-31
4.6835e-07 5.2921e-31
4.6866e-07 7.3257e-31
4.6897e-07 8.4995e-31
4.6929e-07 1.0664e-30
4.696e-07 1.4783e-30
4.6991e-07 1.5165e-30
4.7023e-07 1.1691e-30
4.7054e-07 8.946e-31
4.7086e-07 8.7286e-31
4.7117e-07 9.1893e-31
4.7148e-07 7.7225e-31
4.718e-07 6.3542e-31
4.7211e-07 7.0062e-31
4.7243e-07 7.5992e-31
4.7274e-07 7.8806e-31
4.7306e-07 8.0082e-31
4.7338e-07 6.9893e-31
4.7369e-07 5.3846e-31
4.7401e-07 4.5403e-31
4.7432e-07 4.3831e-31
4.7464e-07 3.9417e-31
4.7496e-07 2.8748e-31
4.7527e-07 2.1735e-31
4.7559e-07 1.8913e-31
4.7591e-07 1.687e-31
4.7623e-07 1.5056e-31
4.7654e-07 1.2498e-31
4.7686e-07 1.0448e-31
4.7718e-07 8.102e-32
4.775e-07 5.3051e-32
4.7782e-07 4.3063e-32
4.7814e-07 3.1495e-32
4.7846e-07 2.1527e-32
4.7878e-07 2.0411e-32
4.7909e-07 1.033e-32
4.7941e-07 3.2622e-33
4.7973e-07 7.7385e-34
4.8005e-07 7.4147e-34
4.8038e-07 2.2658e-34
4.807e-07 1.6355e-34
4.8102e-07 8.9911e-34
4.8134e-07 3.4003e-33
4.8166e-07 5.4495e-33
4.8198e-07 1.0855e-32
4.823e-07 1.6225e-32
4.8262e-07 2.344e-32
4.8295e-07 4.8495e-32
4.8327e-07 9.3834e-32
4.8359e-07 1.5773e-31
4.8391e-07 2.4677e-31
4.8424e-07 4.2924e-31
4.8456e-07 7.6138e-31
4.8488e-07 1.1718e-30
4.8521e-07 1.343e-30
4.8553e-07 1.2315e-30
4.8585e-07 9.7097e-31
4.8618e-07 7.1194e-31
4.865e-07 6.6967e-31
4.8683e-07 8.2405e-31
4.8715e-07 9.4097e-31
4.8748e-07 9.3652e-31
4.878e-07 8.7875e-31
4.8813e-07 8.0853e-31
4.8846e-07 7.7428e-31
4.8878e-07 8.3935e-31
4.8911e-07 9.5173e-31
4.8943e-07 8.8457e-31
4.8976e-07 6.7116e-31
4.9009e-07 5.2977e-31
4.9041e-07 5.0606e-31
4.9074e-07 4.952e-31
4.9107e-07 4.643e-31
4.914e-07 3.9841e-31
4.9173e-07 3.188e-31
4.9205e-07 2.8161e-31
4.9238e-07 2.6611e-31
4.9271e-07 2.372e-31
4.9304e-07 1.8748e-31
4.9337e-07 1.3872e-31
4.937e-07 1.0345e-31
4.9403e-07 8.5718e-32
4.9436e-07 7.2004e-32
4.9469e-07 5.8669e-32
4.9502e-07 4.3034e-32
4.9535e-07 3.2872e-32
4.9568e-07 2.8341e-32
4.9601e-07 2.7052e-32
4.9634e-07 2.4318e-32
4.9667e-07 2.067e-32
4.97e-07 3.3641e-32
4.9733e-07 5.3857e-32
4.9767e-07 8.1012e-32
4.98e-07 1.5969e-31
4.9833e-07 2.7689e-31
4.9866e-07 3.7762e-31
4.99e-07 4.7103e-31
4.9933e-07 6.037e-31
4.9966e-07 7.4106e-31
5e-07 9.2844e-31
5.0033e-07 1.1261e-30
5.0066e-07 1.3403e-30
5.01e-07 1.6846e-30
5.0133e-07 2.4649e-30
5.0167e-07 3.5408e-30
5.02e-07 4.1167e-30
5.0234e-07 4.1613e-30
5.0267e-07 5.2788e-30
5.0301e-07 7.5442e-30
5.0334e-07 1.1693e-29
5.0368e-07 1.7219e-29
5.0402e-07 1.8822e-29
5.0435e-07 1.6011e-29
5.0469e-07 1.089e-29
5.0503e-07 6.9795e-30
5.0536e-07 6.8875e-30
5.057e-07 9.3026e-30
5.0604e-07 9.7217e-30
5.0637e-07 8.4281e-30
5.0671e-07 9.3231e-30
5.0705e-07 1.0315e-29
5.0739e-07 1.0553e-29
5.0773e-07 1.007e-29
5.0807e-07 8.99e-30
5.0841e-07 7.6758e-30
5.0875e-07 6.633e-30
5.0909e-07 5.9057e-30
5.0942e-07 5.6605e-30
5.0976e-07 5.1388e-30
5.1011e-07 4.0709e-30
5.1045e-07 3.4981e-30
5.1079e-07 2.579e-30
5.1113e-07 2.4258e-30
5.1147e-07 1.9909e-30
5.1181e-07 1.6225e-30
5.1215e-07 1.4844e-30
5.1249e-07 1.2077e-30
5.1284e-07 9.8528e-31
5.1318e-07 7.369e-31
5.1352e-07 5.4861e-31
5.1386e-07 4.0082e-31
5.1421e-07 3.1349e-31
5.1455e-07 2.5656e-31
5.1489e-07 2.3792e-31
5.1524e-07 2.1967e-31
5.1558e-07 1.8889e-31
5.1592e-07 1.6124e-31
5.1627e-07 1.4929e-31
5.1661e-07 1.4174e-31
5.1696e-07 1.2844e-31
5.173e-07 1.1176e-31
5.1765e-07 1.0372e-31
5.1799e-07 9.4748e-32
5.1834e-07 8.7124e-32
5.1869e-07 7.8853e-32
5.1903e-07 8.0098e-32
5.1938e-07 7.6483e-32
5.1972e-07 6.5178e-32
5.2007e-07 5.6515e-32
5.2042e-07 4.9722e-32
5.2077e-07 4.9118e-32
5.2111e-07 5.1321e-32
5.2146e-07 5.343e-32
5.2181e-07 6.9774e-32
5.2216e-07 8.7658e-32
5.2251e-07 1.1043e-31
5.2285e-07 1.7742e-31
5.232e-07 3.6653e-31
5.2355e-07 6.7723e-31
5.239e-07 1.0846e-30
5.2425e-07 1.5055e-30
5.246e-07 1.5448e-30
5.2495e-07 1.3425e-30
5.253e-07 1.0156e-30
5.2565e-07 6.0277e-31
5.26e-07 3.5241e-31
5.2635e-07 5.1246e-31
5.2671e-07 8.9083e-31
5.2706e-07 1.0833e-30
5.2741e-07 9.0758e-31
5.2776e-07 6.7116e-31
5.2811e-07 5.5948e-31
5.2847e-07 6.0547e-31
5.2882e-07 7.289e-31
5.2917e-07 7.3996e-31
5.2953e-07 7.0506e-31
5.2988e-07 7.1369e-31
5.3023e-07 7.3161e-31
5.3059e-07 7.367e-31
5.3094e-07 6.3704e-31
5.3129e-07 5.1883e-31
5.3165e-07 4.6347e-31
5.32e-07 4.2129e-31
5.3236e-07 3.9137e-31
5.3271e-07 3.5803e-31
5.3307e-07 2.8043e-31
5.3343e-07 2.1479e-31
5.3378e-07 1.9661e-31
5.3414e-07 1.9053e-31
5.3449e-07 1.989e-31
5.3485e-07 2.4257e-31
5.3521e-07 2.8498e-31
5.3557e-07 3.0493e-31
5.3592e-07 3.2922e-31
5.3628e-07 4.0517e-31
5.3664e-07 4.5495e-31
5.37e-07 5.1054e-31
5.3736e-07 5.4805e-31
5.3771e-07 7.0811e-31
5.3807e-07 8.6071e-31
5.3843e-07 1.0018e-30
5.3879e-07 1.2311e-30
5.3915e-07 1.4865e-30
5.3951e-07 1.8696e-30
5.3987e-07 2.6793e-30
5.4023e-07 3.5957e-30
5.4059e-07 5.189e-30
5.4095e-07 7.2163e-30
5.4131e-07 8.2452e-30
5.4167e-07 7.9266e-30
5.4204e-07 6.9088e-30
5.424e-07 5.8885e-30
5.4276e-07 4.817e-30
5.4312e-07 4.7233e-30
5.4349e-07 6.2265e-30
5.4385e-07 6.4964e-30
5.4421e-07 5.1048e-30
5.4457e-07 4.7342e-30
5.4494e-07 4.8616e-30
5.453e-07 4.8618e-30
5.4567e-07 5.9077e-30
5.4603e-07 7.2845e-30
5.4639e-07 7.3223e-30
5.4676e-07 6.1194e-30
5.4712e-07 4.4503e-30
5.4749e-07 3.5686e-30
5.4785e-07 3.2533e-30
5.4822e-07 2.852e-30
5.4859e-07 2.2819e-30
5.4895e-07 2.1969e-30
5.4932e-07 2.2688e-30
5.4968e-07 2.3657e-30
5.5005e-07 2.0679e-30
5.5042e-07 1.6126e-30
5.5079e-07 1.3607e-30
5.5115e-07 1.2496e-30
5.5152e-07 1.0445e-30
5.5189e-07 7.4987e-31
5.5226e-07 5.9837e-31
5.5263e-07 5.2732e-31
5.53e-07 4.1808e-31
5.5336e-07 3.4016e-31
5.5373e-07 2.7293e-31
5.541e-07 2.1982e-31
5.5447e-07 2.184e-31
5.5484e-07 2.0278e-31
5.5521e-07 1.5601e-31
5.5558e-07 1.2026e-31
5.5596e-07 8.151e-32
5.5633e-07 4.7432e-32
5.567e-07 3.1148e-32
5.5707e-07 4.7684e-32
5.5744e-07 7.8247e-32
5.5781e-07 1.0582e-31
5.5819e-07 1.3275e-31
5.5856e-07 1.741e-31
5.5893e-07 2.0189e-31
5.593e-07 2.1868e-31
5.5968e-07 2.5125e-31
5.6005e-07 3.3528e-31
5.6042e-07 3.6481e-31
5.608e-07 3.954e-31
5.6117e-07 4.0144e-31
5.6155e-07 3.7448e-31
5.6192e-07 4.1469e-31
5.623e-07 4.8468e-31
5.6267e-07 5.3878e-31
5.6305e-07 4.7971e-31
5.6342e-07 3.3773e-31
5.638e-07 3.3688e-31
5.6418e-07 4.4536e-31
5.6455e-07 4.727e-31
5.6493e-07 4.8887e-31
5.6531e-07 5.1025e-31
5.6568e-07 5.4282e-31
5.6606e-07 7.2296e-31
5.6644e-07 1.1233e-30
5.6682e-07 1.5429e-30
5.672e-07 2.2414e-30
5.6757e-07 3.6494e-30
5.6795e-07 6.383e-30
5.6833e-07 1.0438e-29
5.6871e-07 1.4351e-29
5.6909e-07 1.6056e-29
5.6947e-07 1.4645e-29
5.6985e-07 1.336e-29
5.7023e-07 1.0819e-29
5.7061e-07 6.6634e-30
5.7099e-07 4.4039e-30
5.7137e-07 5.2393e-30
5.7176e-07 7.8128e-30
5.7214e-07 1.0353e-29
5.7252e-07 9.9763e-30
5.729e-07 9.0717e-30
5.7328e-07 8.367e-30
5.7367e-07 7.8917e-30
5.7405e-07 8.7351e-30
5.7443e-07 9.1987e-30
5.7482e-07 8.9338e-30
5.752e-07 7.2245e-30
5.7558e-07 6.9061e-30
5.7597e-07 6.5846e-30
5.7635e-07 5.8751e-30
5.7674e-07 5.5018e-30
5.7712e-07 5.9438e-30
5.7751e-07 5.7106e-30
5.7789e-07 4.5383e-30
5.7828e-07 3.4732e-30
5.7866e-07 2.969e-30
5.7905e-07 2.5949e-30
5.7944e-07 2.524e-30
5.7982e-07 2.2091e-30
5.8021e-07 1.9037e-30
5.806e-07 1.9692e-30
5.8098e-07 1.9267e-30
5.8137e-07 1.9445e-30
5.8176e-07 2.0956e-30
5.8215e-07 2.1505e-30
5.8254e-07 2.2005e-30
5.8293e-07 2.353e-30
5.8331e-07 2.6296e-30
5.837e-07 2.8239e-30
5.8409e-07 3.0547e-30
5.8448e-07 3.1679e-30
5.8487e-07 3.3629e-30
5.8526e-07 3.6602e-30
5.8565e-07 4.4492e-30
5.8605e-07 6.193e-30
5.8644e-07 8.2244e-30
5.8683e-07 1.0518e-29
5.8722e-07 1.5112e-29
5.8761e-07 2.2727e-29
5.88e-07 3.602e-29
5.884e-07 5.5452e-29
5.8879e-07 7.0118e-29
5.8918e-07 7.7283e-29
5.8958e-07 7.3602e-29
5.8997e-07 7.7463e-29
5.9036e-07 6.8489e-29
5.9076e-07 5.8018e-29
5.9115e-07 5.5839e-29
5.9155e-07 6.0448e-29
5.9194e-07 6.9864e-29
5.9234e-07 7.2397e-29
5.9273e-07 5.6585e-29
5.9313e-07 4.0912e-29
5.9352e-07 3.4765e-29
5.9392e-07 4.9812e-29
5.9431e-07 7.261e-29
5.9471e-07 7.9561e-29
5.9511e-07 6.4676e-29
5.9551e-07 4.6843e-29
5.959e-07 4.0387e-29
5.963e-07 3.4752e-29
5.967e-07 3.7532e-29
5.971e-07 4.1198e-29
5.975e-07 3.7208e-29
5.9789e-07 3.3656e-29
5.9829e-07 2.6329e-29
5.9869e-07 2.2438e-29
5.9909e-07 2.2967e-29
5.9949e-07 1.9733e-29
5.9989e-07 1.6182e-29
6.0029e-07 1.3352e-29
6.0069e-07 1.0253e-29
6.0109e-07 8.1033e-30
6.015e-07 7.5762e-30
6.019e-07 6.8472e-30
6.023e-07 4.8639e-30
6.027e-07 3.9352e-30
6.031e-07 3.5295e-30
6.0351e-07 2.6279e-30
6.0391e-07 1.867e-30
6.0431e-07 1.6155e-30
6.0471e-07 1.3334e-30
6.0512e-07 1.0355e-30
6.0552e-07 9.2205e-31
6.0593e-07 8.074e-31
6.0633e-07 5.9083e-31
6.0674e-07 4.2082e-31
6.0714e-07 3.6453e-31
6.0755e-07 3.3871e-31
6.0795e-07 2.7822e-31
6.0836e-07 2.2431e-31
6.0876e-07 1.9635e-31
6.0917e-07 1.6497e-31
6.0958e-07 1.3701e-31
6.0998e-07 1.2116e-31
6.1039e-07 1.05e-31
6.108e-07 8.6409e-32
6.112e-07 7.4709e-32
6.1161e-07 6.4481e-32
6.1202e-07 5.9755e-32
6.1243e-07 6.077e-32
6.1284e-07 4.8402e-32
6.1325e-07 3.7711e-32
6.1366e-07 3.6572e-32
6.1407e-07 3.8383e-32
6.1448e-07 3.9627e-32
6.1489e-07 4.8186e-32
6.153e-07 4.9249e-32
6.1571e-07 4.4699e-32
6.1612e-07 4.5725e-32
6.1653e-07 5.4732e-32
6.1694e-07 5.9646e-32
6.1735e-07 6.4028e-32
6.1776e-07 7.2341e-32
6.1818e-07 9.0762e-32
6.1859e-07 1.0348e-31
6.19e-07 1.0176e-31
6.1942e-07 1.0676e-31
6.1983e-07 1.1579e-31
6.2024e-07 1.1814e-31
6.2066e-07 1.2176e-31
6.2107e-07 1.2735e-31
6.2149e-07 1.3926e-31
6.219e-07 1.522e-31
6.2232e-07 1.7486e-31
6.2273e-07 1.9091e-31
6.2315e-07 2.2564e-31
6.2356e-07 2.7845e-31
6.2398e-07 3.3589e-31
6.2439e-07 4.8453e-31
6.2481e-07 8.2122e-31
6.2523e-07 1.2157e-30
6.2565e-07 1.7923e-30
6.2606e-07 2.943e-30
6.2648e-07 4.5815e-30
6.269e-07 6.6923e-30
6.2732e-07 8.877e-30
6.2774e-07 1.1247e-29
6.2816e-07 1.2193e-29
6.2857e-07 1.1419e-29
6.2899e-07 9.9319e-30
6.2941e-07 8.7377e-30
6.2983e-07 6.8154e-30
6.3025e-07 4.1861e-30
6.3068e-07 2.3291e-30
6.311e-07 3.3061e-30
6.3152e-07 6.4739e-30
6.3194e-07 1.0193e-29
6.3236e-07 1.0274e-29
6.3278e-07 7.9501e-30
6.3321e-07 6.2097e-30
6.3363e-07 5.1876e-30
6.3405e-07 5.2313e-30
6.3447e-07 5.9311e-30
6.349e-07 6.4566e-30
6.3532e-07 5.6794e-30
6.3575e-07 5.1183e-30
6.3617e-07 5.0374e-30
6.3659e-07 4.6021e-30
6.3702e-07 4.8826e-30
6.3744e-07 4.9956e-30
6.3787e-07 3.945e-30
6.383e-07 3.7597e-30
6.3872e-07 3.9831e-30
6.3915e-07 4.0402e-30
6.3957e-07 4.0013e-30
6.4e-07 3.8479e-30
6.4043e-07 3.9399e-30
6.4086e-07 4.3039e-30
6.4128e-07 4.2387e-30
6.4171e-07 3.9494e-30
6.4214e-07 3.8727e-30
6.4257e-07 4.159e-30
6.43e-07 4.6508e-30
6.4343e-07 5.2398e-30
6.4386e-07 5.6468e-30
6.4429e-07 6.9165e-30
6.4472e-07 8.2546e-30
6.4515e-07 1.0473e-29
6.4558e-07 1.5125e-29
6.4601e-07 2.3069e-29
6.4644e-07 3.2238e-29
6.4687e-07 4.1211e-29
6.473e-07 5.5526e-29
6.4773e-07 6.7083e-29
6.4817e-07 6.5398e-29
6.486e-07 5.7738e-29
6.4903e-07 5.1097e-29
6.4946e-07 4.4788e-29
6.499e-07 3.4662e-29
6.5033e-07 2.1766e-29
6.5077e-07 1.8709e-29
6.512e-07 3.8237e-29
6.5164e-07 5.9693e-29
6.5207e-07 5.966e-29
6.5251e-07 3.6582e-29
6.5294e-07 2.2948e-29
6.5338e-07 2.3472e-29
6.5381e-07 2.2943e-29
6.5425e-07 2.6304e-29
6.5469e-07 3.4287e-29
6.5512e-07 3.7573e-29
6.5556e-07 3.7353e-29
6.56e-07 3.0778e-29
6.5644e-07 2.7593e-29
6.5687e-07 2.8067e-29
6.5731e-07 2.7601e-29
6.5775e-07 2.5455e-29
6.5819e-07 1.916e-29
6.5863e-07 1.6793e-29
6.5907e-07 1.3467e-29
6.5951e-07 1.0194e-29
6.5995e-07 9.6923e-30
6.6039e-07 9.1546e-30
6.6083e-07 6.1545e-30
6.6127e-07 5.0668e-30
6.6171e-07 3.837e-30
6.6215e-07 2.9564e-30
6.626e-07 3.1496e-30
6.6304e-07 3.1827e-30
6.6348e-07 2.8885e-30
6.6392e-07 2.5496e-30
6.6437e-07 2.8164e-30
6.6481e-07 2.5099e-30
6.6525e-07 2.069e-30
6.657e-07 1.7022e-30
6.6614e-07 1.672e-30
6.6659e-07 1.5305e-30
6.6703e-07 1.2247e-30
6.6748e-07 9.9291e-31
6.6792e-07 7.9439e-31
6.6837e-07 7.2506e-31
6.6881e-07 6.4089e-31
6.6926e-07 4.7912e-31
6.6971e-07 3.3059e-31
6.7015e-07 3.0151e-31
6.706e-07 2.3969e-31
6.7105e-07 1.8207e-31
6.715e-07 1.3635e-31
6.7195e-07 1.2765e-31
6.7239e-07 1.3438e-31
6.7284e-07 1.1095e-31
6.7329e-07 7.4736e-32
6.7374e-07 7.1702e-32
6.7419e-07 8.3731e-32
6.7464e-07 8.8175e-32
6.7509e-07 7.886e-32
6.7554e-07 8.9392e-32
6.7599e-07 1.2188e-31
6.7644e-07 1.5848e-31
6.769e-07 1.8939e-31
6.7735e-07 2.1363e-31
6.778e-07 2.4708e-31
6.7825e-07 3.5246e-31
6.787e-07 4.3791e-31
6.7916e-07 4.2837e-31
6.7961e-07 5.2471e-31
6.8006e-07 7.3351e-31
6.8052e-07 9.0381e-31
6.8097e-07 9.6587e-31
6.8143e-07 1.0964e-30
6.8188e-07 1.4214e-30
6.8234e-07 1.828e-30
6.8279e-07 2.0033e-30
6.8325e-07 1.8261e-30
6.837e-07 2.0141e-30
6.8416e-07 2.5738e-30
6.8462e-07 2.7468e-30
6.8507e-07 2.365e-30
6.8553e-07 2.3969e-30
6.8599e-07 2.792e-30
6.8645e-07 3.6293e-30
6.869e-07 4.2698e-30
6.8736e-07 3.5746e-30
6.8782e-07 2.5852e-30
6.8828e-07 1.9738e-30
6.8874e-07 2.27e-30
6.892e-07 2.6882e-30
6.8966e-07 3.3266e-30
6.9012e-07 4.828e-30
6.9058e-07 6.9228e-30
6.9104e-07 1.0081e-29
6.915e-07 1.556e-29
6.9196e-07 2.9017e-29
6.9243e-07 5.0717e-29
6.9289e-07 8.0521e-29
6.9335e-07 1.0233e-28
6.9381e-07 1.2354e-28
6.9428e-07 1.4378e-28
6.9474e-07 1.313e-28
6.952e-07 1.1674e-28
6.9567e-07 1.0845e-28
6.9613e-07 9.5313e-29
6.966e-07 6.0103e-29
6.9706e-07 3.3424e-29
6.9753e-07 2.5795e-29
6.9799e-07 3.4205e-29
6.9846e-07 5.5263e-29
6.9892e-07 8.2981e-29
6.9939e-07 9.6046e-29
6.9986e-07 8.5189e-29
7.0032e-07 8.7891e-29
7.0079e-07 8.5682e-29
7.0126e-07 8.1233e-29
7.0173e-07 8.2077e-29
7.022e-07 8.6303e-29
7.0267e-07 8.3151e-29
7.0313e-07 6.8113e-29
7.036e-07 5.3389e-29
7.0407e-07 5.4747e-29
7.0454e-07 5.0375e-29
7.0501e-07 4.9942e-29
7.0548e-07 5.7028e-29
7.0595e-07 5.0418e-29
7.0643e-07 4.4543e-29
7.069e-07 3.9919e-29
7.0737e-07 3.6321e-29
7.0784e-07 3.6114e-29
7.0831e-07 3.4203e-29
7.0879e-07 2.9371e-29
7.0926e-07 2.8898e-29
7.0973e-07 2.8656e-29
7.1021e-07 2.8733e-29
7.1068e-07 2.728e-29
7.1115e-07 2.4175e-29
7.1163e-07 2.1179e-29
7.121e-07 2.1606e-29
7.1258e-07 2.2558e-29
7.1306e-07 2.559e-29
7.1353e-07 2.7e-29
7.1401e-07 2.8199e-29
7.1448e-07 3.5929e-29
7.1496e-07 4.3256e-29
7.1544e-07 5.1856e-29
7.1592e-07 6.8091e-29
7.1639e-07 1.3427e-28
7.1687e-07 2.4476e-28
7.1735e-07 3.8257e-28
7.1783e-07 4.2324e-28
7.1831e-07 4.5848e-28
7.1879e-07 4.7026e-28
7.1927e-07 4.7223e-28
7.1975e-07 4.5484e-28
7.2023e-07 4.59e-28
7.2071e-07 3.6982e-28
7.2119e-07 2.3138e-28
7.2167e-07 1.3419e-28
7.2215e-07 1.1888e-28
7.2263e-07 1.4161e-28
7.2312e-07 2.3557e-28
7.236e-07 3.3302e-28
7.2408e-07 3.7726e-28
7.2457e-07 3.7546e-28
7.2505e-07 3.4581e-28
7.2553e-07 3.3407e-28
7.2602e-07 3.0269e-28
7.265e-07 2.9388e-28
7.2699e-07 3.0198e-28
7.2747e-07 3.3292e-28
7.2796e-07 3.15e-28
7.2844e-07 2.6379e-28
7.2893e-07 2.6167e-28
7.2942e-07 2.9084e-28
7.299e-07 2.699e-28
7.3039e-07 2.6695e-28
7.3088e-07 2.7474e-28
7.3137e-07 2.4056e-28
7.3185e-07 2.0603e-28
7.3234e-07 1.632e-28
7.3283e-07 1.2399e-28
7.3332e-07 1.1365e-28
7.3381e-07 9.1148e-29
7.343e-07 7.0036e-29
7.3479e-07 7.8259e-29
7.3528e-07 8.4258e-29
7.3577e-07 7.8e-29
7.3626e-07 8.5472e-29
7.3675e-07 8.2358e-29
7.3724e-07 7.1443e-29
7.3774e-07 5.0735e-29
7.3823e-07 5.0493e-29
7.3872e-07 4.8877e-29
7.3921e-07 4.4794e-29
7.3971e-07 4.0969e-29
7.402e-07 2.9176e-29
7.407e-07 2.1878e-29
7.4119e-07 2.0935e-29
7.4169e-07 1.7258e-29
7.4218e-07 1.5352e-29
7.4268e-07 1.3306e-29
7.4317e-07 9.3923e-30
7.4367e-07 6.4458e-30
7.4416e-07 6.3627e-30
7.4466e-07 5.2012e-30
7.4516e-07 4.143e-30
7.4565e-07 3.9606e-30
7.4615e-07 3.1131e-30
7.4665e-07 2.6643e-30
7.4715e-07 2.3851e-30
7.4765e-07 2.0755e-30
7.4815e-07 1.8289e-30
7.4865e-07 1.4766e-30
7.4915e-07 1.3153e-30
7.4965e-07 1.2829e-30
7.5015e-07 1.3248e-30
7.5065e-07 1.3439e-30
7.5115e-07 1.1302e-30
7.5165e-07 9.478e-31
7.5215e-07 7.7998e-31
7.5265e-07 6.049e-31
7.5315e-07 4.75e-31
7.5366e-07 4.9916e-31
7.5416e-07 5.1282e-31
7.5466e-07 4.3563e-31
7.5517e-07 3.8981e-31
7.5567e-07 3.7741e-31
7.5618e-07 3.2636e-31
7.5668e-07 2.6324e-31
7.5719e-07 3.0988e-31
7.5769e-07 4.2228e-31
7.582e-07 4.9949e-31
7.587e-07 4.4942e-31
7.5921e-07 3.4283e-31
7.5972e-07 2.8509e-31
7.6022e-07 2.3789e-31
7.6073e-07 2.2904e-31
7.6124e-07 2.4454e-31
7.6175e-07 2.0596e-31
7.6225e-07 1.4925e-31
7.6276e-07 9.8852e-32
7.6327e-07 9.3641e-32
7.6378e-07 9.2317e-32
7.6429e-07 7.5882e-32
7.648e-07 5.4156e-32
7.6531e-07 4.2129e-32
7.6582e-07 4.097e-32
7.6633e-07 3.9684e-32
7.6685e-07 3.0273e-32
7.6736e-07 2.3356e-32
7.6787e-07 2.2219e-32
7.6838e-07 2.1495e-32
7.689e-07 2.6676e-32
7.6941e-07 3.2161e-32
7.6992e-07 4.1565e-32
7.7044e-07 4.4875e-32
7.7095e-07 5.4684e-32
7.7146e-07 8.4407e-32
7.7198e-07 9.6317e-32
7.7249e-07 1.1528e-31
7.7301e-07 1.4564e-31
7.7353e-07 1.408e-31
7.7404e-07 1.6176e-31
7.7456e-07 1.8797e-31
7.7508e-07 2.0469e-31
7.7559e-07 2.5295e-31
7.7611e-07 2.47e-31
7.7663e-07 1.9636e-31
7.7715e-07 2.3741e-31
7.7767e-07 3.1189e-31
7.7819e-07 3.3122e-31
7.787e-07 4.0181e-31
7.7922e-07 5.7766e-31
7.7974e-07 6.5271e-31
7.8026e-07 6.8966e-31
7.8079e-07 7.3893e-31
7.8131e-07 8.04e-31
7.8183e-07 1.0599e-30
7.8235e-07 1.3427e-30
7.8287e-07 1.6734e-30
7.8339e-07 2.3741e-30
7.8392e-07 3.7411e-30
7.8444e-07 5.0419e-30
7.8496e-07 6.1239e-30
7.8549e-07 7.0213e-30
7.8601e-07 1.0728e-29
7.8654e-07 1.839e-29
7.8706e-07 2.5715e-29
7.8759e-07 2.9202e-29
7.8811e-07 2.9586e-29
7.8864e-07 3.9122e-29
7.8917e-07 5.0807e-29
7.8969e-07 5.8373e-29
7.9022e-07 5.5697e-29
7.9075e-07 5.2068e-29
7.9127e-07 4.7554e-29
7.918e-07 4.176e-29
7.9233e-07 4.4703e-29
7.9286e-07 4.3594e-29
7.9339e-07 2.7417e-29
7.9392e-07 1.6223e-29
7.9445e-07 1.2555e-29
7.9498e-07 2.0137e-29
7.9551e-07 3.3207e-29
7.9604e-07 5.7836e-29
7.9657e-07 6.5991e-29
7.971e-07 5.1051e-29
7.9764e-07 3.5107e-29
7.9817e-07 3.2586e-29
7.987e-07 3.2405e-29
7.9923e-07 3.3475e-29
7.9977e-07 4.1115e-29
8.003e-07 5.1761e-29
8.0083e-07 5.7149e-29
8.0137e-07 5.8293e-29
8.019e-07 5.274e-29
8.0244e-07 5.5138e-29
8.0297e-07 5.7458e-29
8.0351e-07 5.3923e-29
8.0405e-07 5.2534e-29
8.0458e-07 4.4592e-29
8.0512e-07 3.407e-29
8.0566e-07 2.5285e-29
8.062e-07 2.6581e-29
8.0673e-07 2.6208e-29
8.0727e-07 2.5186e-29
8.0781e-07 2.732e-29
8.0835e-07 3.2972e-29
8.0889e-07 3.9642e-29
8.0943e-07 4.7349e-29
8.0997e-07 5.43e-29
8.1051e-07 6.34e-29
8.1105e-07 8.7371e-29
8.1159e-07 1.0036e-28
8.1213e-07 1.1558e-28
8.1268e-07 1.6044e-28
8.1322e-07 2.2481e-28
8.1376e-07 2.8775e-28
8.1431e-07 3.2988e-28
8.1485e-07 3.6346e-28
8.1539e-07 4.0736e-28
8.1594e-07 4.3997e-28
8.1648e-07 4.9285e-28
8.1703e-07 4.616e-28
8.1757e-07 4.1597e-28
8.1812e-07 4.0915e-28
8.1866e-07 3.5846e-28
8.1921e-07 3.3172e-28
8.1976e-07 3.1228e-28
8.203e-07 2.3583e-28
8.2085e-07 1.4215e-28
8.214e-07 1.2748e-28
8.2195e-07 2.0943e-28
8.225e-07 4.248e-28
8.2304e-07 6.4246e-28
8.2359e-07 5.1873e-28
8.2414e-07 2.7773e-28
8.2469e-07 1.7853e-28
8.2524e-07 1.4536e-28
8.258e-07 1.7529e-28
8.2635e-07 1.8447e-28
8.269e-07 1.6578e-28
8.2745e-07 2.3989e-28
8.28e-07 3.0493e-28
8.2855e-07 2.8566e-28
8.2911e-07 2.7807e-28
8.2966e-07 2.5447e-28
8.3021e-07 2.285e-28
8.3077e-07 2.1229e-28
8.3132e-07 2.0148e-28
8.3188e-07 2.2588e-28
8.3243e-07 2.1331e-28
8.3299e-07 1.7674e-28
8.3354e-07 1.7138e-28
8.341e-07 1.4463e-28
8.3466e-07 1.0813e-28
8.3522e-07 9.816e-29
8.3577e-07 1.042e-28
8.3633e-07 9.9527e-29
8.3689e-07 8.447e-29
8.3745e-07 7.7375e-29
8.3801e-07 6.7658e-29
8.3857e-07 5.4591e-29
8.3913e-07 4.6907e-29
8.3969e-07 3.9036e-29
8.4025e-07 3.8461e-29
8.4081e-07 4.1487e-29
8.4137e-07 4.0941e-29
8.4193e-07 3.4262e-29
8.4249e-07 2.2523e-29
8.4305e-07 2.1326e-29
8.4362e-07 2.4867e-29
8.4418e-07 2.3854e-29
8.4474e-07 1.5965e-29
8.4531e-07 1.1899e-29
8.4587e-07 1.0377e-29
8.4644e-07 9.542e-30
8.47e-07 7.5737e-30
8.4757e-07 8.2655e-30
8.4813e-07 1.0881e-29
8.487e-07 1.0726e-29
8.4926e-07 1.0764e-29
8.4983e-07 1.0569e-29
8.504e-07 1.1392e-29
8.5097e-07 1.4554e-29
8.5153e-07 1.6686e-29
8.521e-07 1.5355e-29
8.5267e-07 1.2257e-29
8.5324e-07 9.9193e-30
8.5381e-07 1.1572e-29
8.5438e-07 1.179e-29
8.5495e-07 9.4235e-30
8.5552e-07 8.6306e-30
8.5609e-07 6.719e-30
8.5666e-07 5.6511e-30
8.5723e-07 6.8879e-30
8.5781e-07 6.0715e-30
8.5838e-07 4.1208e-30
8.5895e-07 4.0209e-30
8.5952e-07 3.7441e-30
8.601e-07 2.5656e-30
8.6067e-07 2.0364e-30
8.6125e-07 1.8735e-30
8.6182e-07 1.4958e-30
8.624e-07 1.3802e-30
8.6297e-07 1.2935e-30
8.6355e-07 8.2984e-31
8.6412e-07 6.1963e-31
8.647e-07 6.1708e-31
8.6528e-07 5.2002e-31
8.6586e-07 3.9602e-31
8.6643e-07 2.7278e-31
8.6701e-07 2.9524e-31
8.6759e-07 3.6191e-31
8.6817e-07 3.4396e-31
8.6875e-07 3.0496e-31
8.6933e-07 2.8731e-31
8.6991e-07 2.9257e-31
8.7049e-07 3.4456e-31
8.7107e-07 4.1358e-31
8.7165e-07 3.6394e-31
8.7223e-07 2.869e-31
8.7282e-07 3.5205e-31
8.734e-07 5.9644e-31
8.7398e-07 7.8727e-31
8.7457e-07 8.9864e-31
8.7515e-07 9.9459e-31
8.7573e-07 1.2613e-30
8.7632e-07 1.4617e-30
8.769e-07 1.48e-30
8.7749e-07 2.209e-30
8.7807e-07 3.6121e-30
8.7866e-07 4.0594e-30
8.7925e-07 3.1326e-30
8.7983e-07 3.2968e-30
8.8042e-07 4.4733e-30
8.8101e-07 5.4943e-30
8.816e-07 6.3225e-30
8.8218e-07 7.6157e-30
8.8277e-07 7.0996e-30
8.8336e-07 6.8869e-30
8.8395e-07 6.221e-30
8.8454e-07 5.0995e-30
8.8513e-07 8.0217e-30
8.8572e-07 1.4524e-29
8.8631e-07 1.5644e-29
8.8691e-07 1.319e-29
8.875e-07 1.3255e-29
8.8809e-07 1.6824e-29
8.8868e-07 1.4125e-29
8.8928e-07 1.1278e-29
8.8987e-07 1.5283e-29
8.9046e-07 1.6781e-29
8.9106e-07 1.8119e-29
8.9165e-07 2.6287e-29
8.9225e-07 4.4434e-29
8.9284e-07 7.8073e-29
8.9344e-07 1.1203e-28
8.9404e-07 1.441e-28
8.9463e-07 1.9026e-28
8.9523e-07 2.6218e-28
8.9583e-07 3.4389e-28
8.9642e-07 4.0398e-28
8.9702e-07 4.6746e-28
8.9762e-07 4.4471e-28
8.9822e-07 4.6972e-28
8.9882e-07 6.3317e-28
8.9942e-07 6.634e-28
9.0002e-07 5.5389e-28
9.0062e-07 5.3805e-28
9.0122e-07 5.176e-28
9.0182e-07 4.8149e-28
9.0243e-07 4.3731e-28
9.0303e-07 3.5501e-28
9.0363e-07 2.35e-28
9.0423e-07 1.6984e-28
9.0484e-07 1.7654e-28
9.0544e-07 2.0135e-28
9.0605e-07 2.603e-28
9.0665e-07 3.6732e-28
9.0726e-07 4.6065e-28
9.0786e-07 5.0168e-28
9.0847e-07 5.1316e-28
9.0907e-07 4.9676e-28
9.0968e-07 5.0683e-28
9.1029e-07 5.0044e-28
9.1089e-07 4.6822e-28
9.115e-07 4.099e-28
9.1211e-07 4.0967e-28
9.1272e-07 4.8057e-28
9.1333e-07 6.1749e-28
9.1394e-07 5.8656e-28
9.1455e-07 4.6329e-28
9.1516e-07 5.4686e-28
9.1577e-07 6.1226e-28
9.1638e-07 4.9041e-28
9.1699e-07 4.7038e-28
9.176e-07 5.4248e-28
9.1822e-07 4.9931e-28
9.1883e-07 3.7157e-28
9.1944e-07 3.0399e-28
9.2006e-07 2.5502e-28
9.2067e-07 2.1518e-28
9.2129e-07 2.6462e-28
9.219e-07 2.6762e-28
9.2252e-07 2.5412e-28
9.2313e-07 2.5332e-28
9.2375e-07 2.9156e-28
9.2436e-07 3.2396e-28
9.2498e-07 3.1428e-28
9.256e-07 2.7825e-28
9.2622e-07 2.7869e-28
9.2683e-07 3.0434e-28
9.2745e-07 3.9043e-28
9.2807e-07 6.0893e-28
9.2869e-07 7.9486e-28
9.2931e-07 9.0418e-28
9.2993e-07 1.095e-27
9.3055e-07 1.2809e-27
9.3117e-07 1.4779e-27
9.3179e-07 1.7933e-27
9.3242e-07 2.1565e-27
9.3304e-07 2.2272e-27
9.3366e-07 2.5236e-27
9.3429e-07 2.7231e-27
9.3491e-07 2.4703e-27
9.3553e-07 2.1415e-27
9.3616e-07 2.1287e-27
9.3678e-07 2.2802e-27
9.3741e-07 2.2939e-27
9.3803e-07 2.1455e-27
9.3866e-07 1.7059e-27
9.3929e-07 1.1404e-27
9.3991e-07 9.5955e-28
9.4054e-07 1.0906e-27
9.4117e-07 1.1548e-27
9.418e-07 1.2529e-27
9.4242e-07 1.3602e-27
9.4305e-07 1.5774e-27
9.4368e-07 1.7103e-27
9.4431e-07 1.866e-27
9.4494e-07 1.6613e-27
9.4557e-07 1.714e-27
9.462e-07 1.7634e-27
9.4684e-07 1.6182e-27
9.4747e-07 1.5669e-27
9.481e-07 1.5494e-27
9.4873e-07 1.4399e-27
9.4937e-07 1.4928e-27
9.5e-07 1.7317e-27
