2.8e-07 -0
2.8023e-07 -0
2.8047e-07 -0
2.807e-07 -0
2.8094e-07 -0
2.8117e-07 -0
2.814e-07 -0
2.8164e-07 -0
2.8187e-07 -0
2.8211e-07 -0
2.8234e-07 -0
2.8258e-07 -0
2.8282e-07 -0
2.8305e-07 -0
2.8329e-07 -0
2.8352e-07 -0
2.8376e-07 -0
2.84e-07 -0
2.8423e-07 -0
2.8447e-07 -0
2.8471e-07 -0
2.8495e-07 -0
2.8518e-07 -0
2.8542e-07 -0
2.8566e-07 -0
2.859e-07 -0
2.8614e-07 -0
2.8638e-07 -0
2.8661e-07 -0
2.8685e-07 -0
2.8709e-07 -0
2.8733e-07 -0
2.8757e-07 -0
2.8781e-07 -0
2.8805e-07 -0
2.8829e-07 -0
2.8853e-07 -0
2.8877e-07 -0
2.8901e-07 -0
2.8926e-07 -0
2.895e-07 -0
2.8974e-07 -0
2.8998e-07 -0
2.9022e-07 -0
2.9046e-07 -0
2.9071e-07 -0
2.9095e-07 -0
2.9119e-07 -0
2.9143e-07 -0
2.9168e-07 -0
2.9192e-07 -0
2.9216e-07 -0
2.9241e-07 -0
2.9265e-07 -0
2.929e-07 -0
2.9314e-07 -0
2.9339e-07 -0
2.9363e-07 -0
2.9388e-07 -0
2.9412e-07 -0
2.9437e-07 -0
2.9461e-07 -0
2.9486e-07 -0
2.951e-07 -0
2.9535e-07 -0
2.956e-07 -0
2.9584e-07 -0
2.9609e-07 -0
2.9634e-07 -0
2.9658e-07 -0
2.9683e-07 -0
2.9708e-07 -0
2.9733e-07 -0
2.9757e-07 -0
2.9782e-07 -0
2.9807e-07 -0
2.9832e-07 -0
2.9857e-07 -0
2.9882e-07 -0
2.9907e-07 -0
2.9932e-07 -0
2.9957e-07 -0
2.9982e-07 -0
3.0007e-07 -0
3.0032e-07 -0
3.0057e-07 -0
3.0082e-07 -0
3.0107e-07 -0
3.0132e-07 -0
3.0157e-07 -0
3.0182e-07 -0
3.0207e-07 -0
3.0233e-07 -0
3.0258e-07 -0
3.0283e-07 -0
3.0308e-07 -0
3.0334e-07 -0
3.0359e-07 -0
3.0384e-07 -0
3.041e-07 -0
3.0435e-07 -0
3.046e-07 -0
3.0486e-07 -0
3.0511e-07 -0
3.0537e-07 -0
3.0562e-07 -0
3.0588e-07 -0
3.0613e-07 -0
3.0639e-07 -0
3.0664e-07 -0
3.069e-07 -0
3.0715e-07 -0
3.0741e-07 -0
3.0767e-07 -0
3.0792e-07 -0
3.0818e-07 -0
3.0844e-07 -0
3.087e-07 -0
3.0895e-07 -0
3.0921e-07 -0
3.0947e-07 -0
3.0973e-07 -0
3.0998e-07 -0
3.1024e-07 -0
3.105e-07 -0
3.1076e-07 -0
3.1102e-07 -0
3.1128e-07 -0
3.1154e-07 -0
3.118e-07 -0
3.1206e-07 -0
3.1232e-07 -0
3.1258e-07 -0
3.1284e-07 -0
3.131e-07 -0
3.1336e-07 -0
3.1362e-07 -0
3.1389e-07 -0
3.1415e-07 -0
3.1441e-07 -0
3.1467e-07 -0
3.1494e-07 -0
3.152e-07 -0
3.1546e-07 -0
3.1572e-07 -0
3.1599e-07 -0
3.1625e-07 -0
3.1651e-07 -0
3.1678e-07 -0
3.1704e-07 -0
3.1731e-07 -0
3.1757e-07 -0
3.1784e-07 -0
3.181e-07 -0
3.1837e-07 -0
3.1863e-07 -0
3.189e-07 -0
3.1917e-07 -0
3.1943e-07 -0
3.197e-07 -0
3.1996e-07 -0
3.2023e-07 -0
3.205e-07 -0
3.2077e-07 -0
3.2103e-07 -0
3.213e-07 -0
3.2157e-07 -0
3.2184e-07 -0
3.2211e-07 -0
3.2238e-07 -0
3.2264e-07 -0
3.2291e-07 -0
3.2318e-07 -0
3.2345e-07 -0
3.2372e-07 -0
3.2399e-07 -0
3.2426e-07 -0
3.2453e-07 -0
3.248e-07 -0
3.2507e-07 -0
3.2535e-07 -0
3.2562e-07 -0
3.2589e-07 -0
3.2616e-07 -0
3.2643e-07 -0
3.2671e-07 -0
3.2698e-07 -0
3.2725e-07 -0
3.2752e-07 -0
3.278e-07 -0
3.2807e-07 -0
3.2834e-07 -0
3.2862e-07 -0
3.2889e-07 -0
3.2917e-07 -0
3.2944e-07 -0
3.2972e-07 -0
3.2999e-07 -0
3.3027e-07 -0
3.3054e-07 -0
3.3082e-07 -0
3.3109e-07 -0
3.3137e-07 -0
3.3165e-07 -0
3.3192e-07 -0
3.322e-07 -0
3.3248e-07 -0
3.3275e-07 -0
3.3303e-07 -0
3.3331e-07 -0
3.3359e-07 -0
3.3387e-07 -0
3.3414e-07 -0
3.3442e-07 -0
3.347e-07 -0
3.3498e-07 -0
3.3526e-07 -0
3.3554e-07 -0
3.3582e-07 -0
3.361e-07 -0
3.3638e-07 -0
3.3666e-07 -0
3.3694e-07 -0
3.3722e-07 -0
3.375e-07 -0
3.3779e-07 -0
3.3807e-07 -0
3.3835e-07 -0
3.3863e-07 -0
3.3891e-07 -0
3.392e-07 -0
3.3948e-07 -0
3.3976e-07 -0
3.4005e-07 -0
3.4033e-07 -0
3.4061e-07 -0
3.409e-07 -0
3.4118e-07 -0
3.4147e-07 -0
3.4175e-07 -0
3.4204e-07 -0
3.4232e-07 -0
3.4261e-07 -0
3.4289e-07 -0
3.4318e-07 -0
3.4347e-07 -0
3.4375e-07 -0
3.4404e-07 -0
3.4433e-07 -0
3.4461e-07 -0
3.449e-07 -0
3.4519e-07 -0
3.4548e-07 -0
3.4577e-07 -0
3.4605e-07 -0
3.4634e-07 -0
3.4663e-07 -0
3.4692e-07 -0
3.4721e-07 -0
3.475e-07 -0
3.4779e-07 -0
3.4808e-07 -0
3.4837e-07 -0
3.4866e-07 -0
3.4895e-07 -0
3.4924e-07 -0
3.4953e-07 -0
3.4983e-07 -0
3.5012e-07 -0
3.5041e-07 -0
3.507e-07 -0
3.5099e-07 -0
3.5129e-07 -0
3.5158e-07 -0
3.5187e-07 -0
3.5217e-07 -0
3.5246e-07 -0
3.5276e-07 -0
3.5305e-07 -0
3.5334e-07 -0
3.5364e-07 -0
3.5393e-07 -0
3.5423e-07 -0
3.5452e-07 -0
3.5482e-07 -0
3.5512e-07 -0
3.5541e-07 -0
3.5571e-07 -0
3.5601e-07 -0
3.563e-07 -0
3.566e-07 -0
3.569e-07 -0
3.572e-07 -0
3.5749e-07 -0
3.5779e-07 -0
3.5809e-07 -0
3.5839e-07 -0
3.5869e-07 -0
3.5899e-07 -0
3.5929e-07 -0
3.5959e-07 -0
3.5989e-07 -0
3.6019e-07 -0
3.6049e-07 -0
3.6079e-07 -0
3.6109e-07 -0
3.6139e-07 -0
3.6169e-07 -0
3.6199e-07 -0
3.623e-07 -0
3.626e-07 -0
3.629e-07 -0
3.632e-07 -0
3.6351e-07 -0
3.6381e-07 -0
3.6411e-07 -0
3.6442e-07 -0
3.6472e-07 -0
3.6502e-07 -0
3.6533e-07 -0
3.6563e-07 -0
3.6594e-07 -0
3.6624e-07 -0
3.6655e-07 -0
3.6686e-07 -0
3.6716e-07 -0
3.6747e-07 -0
3.6777e-07 -0
3.6808e-07 -0
3.6839e-07 -0
3.687e-07 -0
3.69e-07 -0
3.6931e-07 -0
3.6962e-07 -0
3.6993e-07 -0
3.7024e-07 -0
3.7054e-07 -0
3.7085e-07 -0
3.7116e-07 -0
3.7147e-07 -0
3.7178e-07 -0
3.7209e-07 -0
3.724e-07 -0
3.7271e-07 -0
3.7302e-07 -0
3.7334e-07 -0
3.7365e-07 -0
3.7396e-07 -0
3.7427e-07 -0
3.7458e-07 -0
3.749e-07 -0
3.7521e-07 -0
3.7552e-07 -0
3.7583e-07 -0
3.7615e-07 -0
3.7646e-07 -0
3.7678e-07 -0
3.7709e-07 -0
3.7741e-07 -0
3.7772e-07 -0
3.7804e-07 -0
3.7835e-07 -0
3.7867e-07 -0
3.7898e-07 -0
3.793e-07 -0
3.7961e-07 -0
3.7993e-07 -0
3.8025e-07 -0
3.8057e-07 -0
3.8088e-07 -0
3.812e-07 -0
3.8152e-07 -0
3.8184e-07 -0
3.8216e-07 -0
3.8247e-07 -0
3.8279e-07 -0
3.8311e-07 -0
3.8343e-07 -0
3.8375e-07 -0
3.8407e-07 -0
3.8439e-07 -0
3.8471e-07 -0
3.8503e-07 -0
3.8536e-07 1.2407e-39
3.8568e-07 4.4097e-38
3.86e-07 2.2349e-37
3.8632e-07 6.4891e-37
3.8664e-07 1.5037e-36
3.8697e-07 3.1784e-36
3.8729e-07 6.1346e-36
3.8761e-07 1.0941e-35
3.8793e-07 1.8962e-35
3.8826e-07 3.7478e-35
3.8858e-07 3.3523e-33
3.8891e-07 1.1202e-32
3.8923e-07 2.1774e-32
3.8956e-07 3.6704e-32
3.8988e-07 6.6622e-32
3.9021e-07 1.0518e-31
3.9053e-07 1.295e-31
3.9086e-07 1.4283e-31
3.9118e-07 1.2601e-31
3.9151e-07 1.0056e-31
3.9184e-07 7.0544e-32
3.9216e-07 7.027e-32
3.9249e-07 9.0338e-32
3.9282e-07 1.0391e-31
3.9315e-07 9.4474e-32
3.9347e-07 6.3369e-32
3.938e-07 3.779e-32
3.9413e-07 1.6028e-32
3.9446e-07 1.7989e-32
3.9479e-07 4.1291e-32
3.9512e-07 5.9276e-32
3.9545e-07 6.6024e-32
3.9578e-07 8.8201e-32
3.9611e-07 2.1061e-31
3.9644e-07 3.904e-31
3.9677e-07 5.7614e-31
3.971e-07 9.7658e-31
3.9743e-07 1.1428e-30
3.9776e-07 7.4845e-31
3.9809e-07 5.0835e-31
3.9843e-07 5.7854e-31
3.9876e-07 6.138e-31
3.9909e-07 6.1005e-31
3.9942e-07 6.1913e-31
3.9976e-07 6.3136e-31
4.0009e-07 5.2234e-31
4.0042e-07 4.2182e-31
4.0076e-07 3.6326e-31
4.0109e-07 2.7696e-31
4.0143e-07 2.2265e-31
4.0176e-07 2.0649e-31
4.021e-07 1.867e-31
4.0243e-07 1.4573e-31
4.0277e-07 1.1663e-31
4.031e-07 1.0639e-31
4.0344e-07 8.2114e-32
4.0378e-07 6.3985e-32
4.0411e-07 6.6349e-32
4.0445e-07 6.6418e-32
4.0479e-07 4.8604e-32
4.0513e-07 3.5066e-32
4.0546e-07 2.9006e-32
4.058e-07 1.7466e-32
4.0614e-07 1.3697e-32
4.0648e-07 1.4846e-32
4.0682e-07 6.0691e-33
4.0716e-07 3.6915e-33
4.075e-07 6.9138e-33
4.0784e-07 6.9517e-33
4.0818e-07 8.6807e-33
4.0852e-07 1.4163e-32
4.0886e-07 1.1033e-32
4.092e-07 4.1542e-33
4.0954e-07 3.4067e-35
4.0988e-07 1.1504e-35
4.1023e-07 1.1424e-35
4.1057e-07 2.0498e-35
4.1091e-07 2.4293e-33
4.1125e-07 4.905e-33
4.116e-07 2.1607e-33
4.1194e-07 7.275e-33
4.1228e-07 2.3457e-32
4.1263e-07 4.0651e-32
4.1297e-07 4.8092e-32
4.1332e-07 4.768e-32
4.1366e-07 4.3614e-32
4.1401e-07 4.9474e-32
4.1435e-07 8.5399e-32
4.147e-07 1.55e-31
4.1504e-07 2.6038e-31
4.1539e-07 3.1805e-31
4.1574e-07 3.669e-31
4.1608e-07 4.9429e-31
4.1643e-07 7.1796e-31
4.1678e-07 7.815e-31
4.1712e-07 4.9219e-31
4.1747e-07 2.7813e-31
4.1782e-07 2.9504e-31
4.1817e-07 3.4369e-31
4.1852e-07 3.1965e-31
4.1887e-07 2.9441e-31
4.1922e-07 2.7037e-31
4.1957e-07 2.3465e-31
4.1992e-07 1.6732e-31
4.2027e-07 1.1734e-31
4.2062e-07 9.2716e-32
4.2097e-07 6.9193e-32
4.2132e-07 5.6246e-32
4.2167e-07 4.3495e-32
4.2202e-07 3.2942e-32
4.2238e-07 2.3939e-32
4.2273e-07 1.4898e-32
4.2308e-07 1.0421e-32
4.2343e-07 6.9309e-33
4.2379e-07 3.8756e-33
4.2414e-07 3.1894e-33
4.2449e-07 1.8072e-32
4.2485e-07 5.5375e-32
4.252e-07 7.9617e-32
4.2556e-07 1.0125e-31
4.2591e-07 1.6582e-31
4.2627e-07 1.9982e-31
4.2662e-07 1.3257e-31
4.2698e-07 8.164e-32
4.2733e-07 9.9398e-32
4.2769e-07 1.1038e-31
4.2805e-07 9.1573e-32
4.2841e-07 8.3648e-32
4.2876e-07 9.4519e-32
4.2912e-07 9.7496e-32
4.2948e-07 7.4632e-32
4.2984e-07 5.2572e-32
4.302e-07 4.8184e-32
4.3055e-07 3.11e-32
4.3091e-07 1.2889e-32
4.3127e-07 9.3179e-33
4.3163e-07 8.7884e-33
4.3199e-07 6.5806e-33
4.3235e-07 4.0462e-33
4.3271e-07 2.6896e-33
4.3307e-07 1.5543e-33
4.3344e-07 3.7476e-34
4.338e-07 6.4418e-36
4.3416e-07 5.4357e-36
4.3452e-07 7.2324e-36
4.3488e-07 3.0498e-35
4.3525e-07 3.0064e-33
4.3561e-07 8.1625e-33
4.3597e-07 8.5767e-33
4.3634e-07 3.8283e-33
4.367e-07 6.2415e-34
4.3707e-07 9.4571e-35
4.3743e-07 5.7248e-33
4.3779e-07 1.55e-32
4.3816e-07 2.5507e-32
4.3853e-07 4.8799e-32
4.3889e-07 1.238e-31
4.3926e-07 1.7736e-31
4.3962e-07 2.0953e-31
4.3999e-07 2.8603e-31
4.4036e-07 3.5665e-31
4.4073e-07 4.3565e-31
4.4109e-07 7.5575e-31
4.4146e-07 1.2962e-30
4.4183e-07 1.5998e-30
4.422e-07 2.3161e-30
4.4257e-07 4.1471e-30
4.4294e-07 4.682e-30
4.4331e-07 3.2005e-30
4.4368e-07 1.7837e-30
4.4405e-07 1.7063e-30
4.4442e-07 2.1908e-30
4.4479e-07 2.5631e-30
4.4516e-07 2.4996e-30
4.4553e-07 2.456e-30
4.459e-07 2.4081e-30
4.4627e-07 1.9304e-30
4.4664e-07 1.5042e-30
4.4702e-07 1.3303e-30
4.4739e-07 1.1414e-30
4.4776e-07 9.0025e-31
4.4814e-07 6.6545e-31
4.4851e-07 5.3198e-31
4.4889e-07 4.4057e-31
4.4926e-07 2.9677e-31
4.4963e-07 2.1096e-31
4.5001e-07 1.4867e-31
4.5038e-07 1.2306e-31
4.5076e-07 1.0424e-31
4.5114e-07 6.511e-32
4.5151e-07 3.4176e-32
4.5189e-07 2.7312e-32
4.5227e-07 4.1711e-32
4.5264e-07 7.3995e-32
4.5302e-07 1.014e-31
4.534e-07 8.1821e-32
4.5378e-07 4.5641e-32
4.5416e-07 5.2383e-32
4.5454e-07 8.3572e-32
4.5491e-07 8.7201e-32
4.5529e-07 7.8531e-32
4.5567e-07 8.4331e-32
4.5605e-07 9.191e-32
4.5643e-07 1.1243e-31
4.5682e-07 1.2957e-31
4.572e-07 9.3572e-32
4.5758e-07 5.3095e-32
4.5796e-07 6.0712e-32
4.5834e-07 7.0554e-32
4.5872e-07 6.5418e-32
4.5911e-07 5.7048e-32
4.5949e-07 4.5658e-32
4.5987e-07 4.1159e-32
4.6026e-07 3.629e-32
4.6064e-07 2.2838e-32
4.6102e-07 1.3652e-32
4.6141e-07 8.9284e-33
4.6179e-07 3.5413e-33
4.6218e-07 4.5408e-33
4.6256e-07 7.7474e-33
4.6295e-07 4.9045e-33
4.6334e-07 1.7912e-33
4.6372e-07 7.4322e-33
4.6411e-07 1.3223e-32
4.645e-07 1.1897e-32
4.6489e-07 1.1156e-32
4.6527e-07 1.9685e-32
4.6566e-07 5.0134e-32
4.6605e-07 1.2498e-31
4.6644e-07 2.8455e-31
4.6683e-07 5.5157e-31
4.6722e-07 7.851e-31
4.6761e-07 7.6148e-31
4.68e-07 6.2524e-31
4.6839e-07 7.5444e-31
4.6878e-07 1.0401e-30
4.6917e-07 1.3616e-30
4.6956e-07 1.8808e-30
4.6995e-07 1.9455e-30
4.7034e-07 1.445e-30
4.7074e-07 1.2024e-30
4.7113e-07 1.2159e-30
4.7152e-07 9.8422e-31
4.7192e-07 8.7488e-31
4.7231e-07 1.0192e-30
4.727e-07 1.0783e-30
4.731e-07 1.0376e-30
4.7349e-07 8.8333e-31
4.7389e-07 6.4979e-31
4.7428e-07 5.878e-31
4.7468e-07 5.1583e-31
4.7507e-07 3.5521e-31
4.7547e-07 2.6697e-31
4.7587e-07 2.3534e-31
4.7626e-07 1.9998e-31
4.7666e-07 1.6675e-31
4.7706e-07 1.2045e-31
4.7746e-07 7.9277e-32
4.7786e-07 5.4645e-32
4.7825e-07 3.6735e-32
4.7865e-07 2.542e-32
4.7905e-07 1.5185e-32
4.7945e-07 4.5079e-33
4.7985e-07 8.28e-34
4.8025e-07 5.0229e-34
4.8065e-07 1.448e-34
4.8105e-07 2.0996e-33
4.8146e-07 5.9228e-33
4.8186e-07 1.2363e-32
4.8226e-07 2.1509e-32
4.8266e-07 3.6796e-32
4.8306e-07 8.484e-32
4.8347e-07 1.7647e-31
4.8387e-07 3.2007e-31
4.8427e-07 6.3024e-31
4.8468e-07 1.2292e-30
4.8508e-07 1.759e-30
4.8549e-07 1.6995e-30
4.8589e-07 1.2502e-30
4.863e-07 9.359e-31
4.867e-07 1.0224e-30
4.8711e-07 1.2435e-30
4.8752e-07 1.2369e-30
4.8792e-07 1.1782e-30
4.8833e-07 1.0351e-30
4.8874e-07 1.1137e-30
4.8914e-07 1.2948e-30
4.8955e-07 1.0893e-30
4.8996e-07 7.7787e-31
4.9037e-07 6.9112e-31
4.9078e-07 6.5855e-31
4.9119e-07 5.9327e-31
4.916e-07 5.0918e-31
4.9201e-07 3.9088e-31
4.9242e-07 3.6021e-31
4.9283e-07 2.9765e-31
4.9324e-07 2.1264e-31
4.9365e-07 1.4981e-31
4.9406e-07 1.145e-31
4.9448e-07 9.1496e-32
4.9489e-07 6.7358e-32
4.953e-07 4.7659e-32
4.9571e-07 3.8196e-32
4.9613e-07 3.5294e-32
4.9654e-07 3.1107e-32
4.9696e-07 4.5278e-32
4.9737e-07 7.3808e-32
4.9779e-07 1.4805e-31
4.982e-07 3.1372e-31
4.9862e-07 4.8694e-31
4.9903e-07 6.5676e-31
4.9945e-07 8.708e-31
4.9986e-07 1.1611e-30
5.0028e-07 1.5016e-30
5.007e-07 1.8111e-30
5.0112e-07 2.603e-30
5.0154e-07 4.2688e-30
5.0195e-07 5.1724e-30
5.0237e-07 5.931e-30
5.0279e-07 7.7792e-30
5.0321e-07 1.3779e-29
5.0363e-07 2.2332e-29
5.0405e-07 2.4919e-29
5.0447e-07 1.9451e-29
5.0489e-07 1.1448e-29
5.0531e-07 9.227e-30
5.0573e-07 1.2315e-29
5.0616e-07 1.2601e-29
5.0658e-07 1.173e-29
5.07e-07 1.3371e-29
5.0742e-07 1.4584e-29
5.0785e-07 1.3281e-29
5.0827e-07 1.1007e-29
5.087e-07 9.1363e-30
5.0912e-07 7.9002e-30
5.0954e-07 7.4039e-30
5.0997e-07 6.2065e-30
5.104e-07 4.6769e-30
5.1082e-07 3.6589e-30
5.1125e-07 3.0566e-30
5.1167e-07 2.3912e-30
5.121e-07 1.9392e-30
5.1253e-07 1.6251e-30
5.1296e-07 1.175e-30
5.1338e-07 8.4524e-31
5.1381e-07 5.7635e-31
5.1424e-07 4.0912e-31
5.1467e-07 3.4688e-31
5.151e-07 3.0461e-31
5.1553e-07 2.6656e-31
5.1596e-07 2.214e-31
5.1639e-07 2.0342e-31
5.1682e-07 1.8464e-31
5.1725e-07 1.5527e-31
5.1768e-07 1.4117e-31
5.1811e-07 1.2514e-31
5.1855e-07 1.1398e-31
5.1898e-07 1.0904e-31
5.1941e-07 1.0332e-31
5.1984e-07 8.6222e-32
5.2028e-07 7.062e-32
5.2071e-07 6.5203e-32
5.2115e-07 6.6399e-32
5.2158e-07 8.3457e-32
5.2202e-07 1.1156e-31
5.2245e-07 1.3548e-31
5.2289e-07 2.732e-31
5.2332e-07 6.0393e-31
5.2376e-07 1.2558e-30
5.242e-07 1.9592e-30
5.2464e-07 2.087e-30
5.2507e-07 1.662e-30
5.2551e-07 1.0506e-30
5.2595e-07 5.4312e-31
5.2639e-07 7.3442e-31
5.2683e-07 1.3428e-30
5.2727e-07 1.3887e-30
5.2771e-07 9.4681e-31
5.2815e-07 7.5428e-31
5.2859e-07 9.0087e-31
5.2903e-07 9.9823e-31
5.2947e-07 9.5505e-31
5.2991e-07 9.9414e-31
5.3035e-07 1.0111e-30
5.308e-07 9.402e-31
5.3124e-07 7.5473e-31
5.3168e-07 6.2571e-31
5.3213e-07 5.6052e-31
5.3257e-07 5.1723e-31
5.3301e-07 4.0717e-31
5.3346e-07 2.9904e-31
5.339e-07 2.672e-31
5.3435e-07 2.6285e-31
5.3479e-07 3.256e-31
5.3524e-07 3.9334e-31
5.3569e-07 4.3557e-31
5.3613e-07 4.7779e-31
5.3658e-07 6.1538e-31
5.3703e-07 7.1658e-31
5.3748e-07 8.2219e-31
5.3793e-07 1.0702e-30
5.3837e-07 1.3684e-30
5.3882e-07 1.6016e-30
5.3927e-07 2.2407e-30
5.3972e-07 3.202e-30
5.4017e-07 4.3573e-30
5.4062e-07 7.1448e-30
5.4107e-07 1.0318e-29
5.4153e-07 1.097e-29
5.4198e-07 9.4677e-30
5.4243e-07 7.6568e-30
5.4288e-07 6.2301e-30
5.4334e-07 7.382e-30
5.4379e-07 8.6532e-30
5.4424e-07 7.1587e-30
5.447e-07 6.2059e-30
5.4515e-07 6.6892e-30
5.4561e-07 7.7087e-30
5.4606e-07 9.7163e-30
5.4652e-07 9.5012e-30
5.4697e-07 6.9308e-30
5.4743e-07 4.9911e-30
5.4788e-07 4.2888e-30
5.4834e-07 3.4325e-30
5.488e-07 2.9722e-30
5.4926e-07 3.038e-30
5.4972e-07 3.0886e-30
5.5017e-07 2.6008e-30
5.5063e-07 1.9912e-30
5.5109e-07 1.7692e-30
5.5155e-07 1.356e-30
5.5201e-07 9.3535e-31
5.5247e-07 7.3959e-31
5.5293e-07 5.8843e-31
5.5339e-07 4.4322e-31
5.5386e-07 3.4795e-31
5.5432e-07 2.97e-31
5.5478e-07 2.8392e-31
5.5524e-07 2.1726e-31
5.5571e-07 1.4818e-31
5.5617e-07 8.5076e-32
5.5663e-07 4.7981e-32
5.571e-07 6.9596e-32
5.5756e-07 1.1702e-31
5.5803e-07 1.6927e-31
5.5849e-07 2.3111e-31
5.5896e-07 2.7536e-31
5.5943e-07 3.13e-31
5.5989e-07 4.1023e-31
5.6036e-07 4.9037e-31
5.6083e-07 5.4529e-31
5.613e-07 5.3825e-31
5.6176e-07 5.3296e-31
5.6223e-07 6.5195e-31
5.627e-07 7.4074e-31
5.6317e-07 5.7703e-31
5.6364e-07 4.6068e-31
5.6411e-07 5.6536e-31
5.6458e-07 6.5606e-31
5.6505e-07 6.9312e-31
5.6552e-07 7.0359e-31
5.66e-07 9.4343e-31
5.6647e-07 1.5499e-30
5.6694e-07 2.3945e-30
5.6741e-07 3.9602e-30
5.6789e-07 7.9211e-30
5.6836e-07 1.4499e-29
5.6883e-07 2.0194e-29
5.6931e-07 2.0774e-29
5.6978e-07 1.8662e-29
5.7026e-07 1.3996e-29
5.7074e-07 8.0544e-30
5.7121e-07 6.1649e-30
5.7169e-07 1.0011e-29
5.7216e-07 1.3597e-29
5.7264e-07 1.3129e-29
5.7312e-07 1.1871e-29
5.736e-07 1.0574e-29
5.7408e-07 1.178e-29
5.7456e-07 1.2789e-29
5.7503e-07 1.0557e-29
5.7551e-07 9.3849e-30
5.7599e-07 8.8245e-30
5.7647e-07 7.8278e-30
5.7696e-07 7.8923e-30
5.7744e-07 7.8413e-30
5.7792e-07 6.0491e-30
5.784e-07 4.4372e-30
5.7888e-07 3.739e-30
5.7937e-07 3.2893e-30
5.7985e-07 2.9287e-30
5.8033e-07 2.6374e-30
5.8082e-07 2.5525e-30
5.813e-07 2.6142e-30
5.8179e-07 2.7495e-30
5.8227e-07 2.9434e-30
5.8276e-07 3.0843e-30
5.8324e-07 3.4931e-30
5.8373e-07 3.8664e-30
5.8422e-07 4.1246e-30
5.8471e-07 4.4881e-30
5.8519e-07 4.8631e-30
5.8568e-07 6.2597e-30
5.8617e-07 9.1683e-30
5.8666e-07 1.3058e-29
5.8715e-07 1.8496e-29
5.8764e-07 3.1978e-29
5.8813e-07 5.666e-29
5.8862e-07 8.6526e-29
5.8911e-07 1.0216e-28
5.896e-07 1.0231e-28
5.9009e-07 9.9577e-29
5.9059e-07 8.4813e-29
5.9108e-07 7.3797e-29
5.9157e-07 8.3241e-29
5.9206e-07 9.8514e-29
5.9256e-07 8.7036e-29
5.9305e-07 5.7478e-29
5.9355e-07 4.9448e-29
5.9404e-07 7.5533e-29
5.9454e-07 1.0295e-28
5.9503e-07 9.1116e-29
5.9553e-07 6.2749e-29
5.9603e-07 5.26e-29
5.9652e-07 5.3528e-29
5.9702e-07 5.461e-29
5.9752e-07 4.9925e-29
5.9802e-07 3.9505e-29
5.9852e-07 3.3021e-29
5.9902e-07 3.0598e-29
5.9952e-07 2.7312e-29
6.0002e-07 2.1086e-29
6.0052e-07 1.5853e-29
6.0102e-07 1.1599e-29
6.0152e-07 9.8011e-30
6.0202e-07 8.1718e-30
6.0252e-07 6.0079e-30
6.0303e-07 4.8233e-30
6.0353e-07 3.5016e-30
6.0403e-07 2.3964e-30
6.0454e-07 1.9914e-30
6.0504e-07 1.532e-30
6.0555e-07 1.2067e-30
6.0605e-07 9.6992e-31
6.0656e-07 6.8286e-31
6.0706e-07 5.1207e-31
6.0757e-07 4.4772e-31
6.0808e-07 3.6049e-31
6.0858e-07 2.9697e-31
6.0909e-07 2.4262e-31
6.096e-07 1.8871e-31
6.1011e-07 1.6033e-31
6.1062e-07 1.3049e-31
6.1113e-07 1.0265e-31
6.1164e-07 9.0875e-32
6.1215e-07 8.4471e-32
6.1266e-07 7.336e-32
6.1317e-07 5.5796e-32
6.1368e-07 5e-32
6.1419e-07 5.4353e-32
6.147e-07 6.426e-32
6.1522e-07 6.856e-32
6.1573e-07 6.2873e-32
6.1624e-07 6.974e-32
6.1676e-07 8.1561e-32
6.1727e-07 8.4689e-32
6.1779e-07 1.0258e-31
6.183e-07 1.3557e-31
6.1882e-07 1.4435e-31
6.1933e-07 1.4593e-31
6.1985e-07 1.5934e-31
6.2037e-07 1.686e-31
6.2089e-07 1.6806e-31
6.214e-07 1.8664e-31
6.2192e-07 2.1302e-31
6.2244e-07 2.4753e-31
6.2296e-07 2.9392e-31
6.2348e-07 3.7903e-31
6.24e-07 4.7628e-31
6.2452e-07 7.9025e-31
6.2504e-07 1.3624e-30
6.2556e-07 2.3356e-30
6.2609e-07 4.1539e-30
6.2661e-07 7.0862e-30
6.2713e-07 1.0869e-29
6.2765e-07 1.4419e-29
6.2818e-07 1.6141e-29
6.287e-07 1.5197e-29
6.2923e-07 1.3321e-29
6.2975e-07 9.9701e-30
6.3028e-07 5.3446e-30
6.308e-07 2.9933e-30
6.3133e-07 7.0719e-30
6.3185e-07 1.3121e-29
6.3238e-07 1.3574e-29
6.3291e-07 9.8267e-30
6.3344e-07 7.5746e-30
6.3397e-07 7.1909e-30
6.3449e-07 8.2349e-30
6.3502e-07 8.3304e-30
6.3555e-07 7.2385e-30
6.3608e-07 6.7331e-30
6.3661e-07 6.5142e-30
6.3715e-07 6.6804e-30
6.3768e-07 6.0568e-30
6.3821e-07 5.2545e-30
6.3874e-07 5.3468e-30
6.3927e-07 5.5815e-30
6.3981e-07 5.3657e-30
6.4034e-07 5.5038e-30
6.4088e-07 5.8038e-30
6.4141e-07 5.5973e-30
6.4195e-07 5.4868e-30
6.4248e-07 5.5542e-30
6.4302e-07 6.2669e-30
6.4355e-07 7.4525e-30
6.4409e-07 8.7001e-30
6.4463e-07 1.0707e-29
6.4516e-07 1.4304e-29
6.457e-07 2.3397e-29
6.4624e-07 3.7753e-29
6.4678e-07 5.4241e-29
6.4732e-07 7.5457e-29
6.4786e-07 9.0971e-29
6.484e-07 8.4214e-29
6.4894e-07 7.1944e-29
6.4948e-07 5.9735e-29
6.5003e-07 3.9584e-29
6.5057e-07 2.6067e-29
6.5111e-07 4.5481e-29
6.5165e-07 7.7579e-29
6.522e-07 6.8844e-29
6.5274e-07 3.8897e-29
6.5329e-07 3.0113e-29
6.5383e-07 3.2258e-29
6.5438e-07 3.8665e-29
6.5492e-07 4.9657e-29
6.5547e-07 4.9735e-29
6.5601e-07 4.2186e-29
6.5656e-07 3.7659e-29
6.5711e-07 3.7462e-29
6.5766e-07 3.4661e-29
6.5821e-07 2.6921e-29
6.5876e-07 2.0939e-29
6.5931e-07 1.5744e-29
6.5986e-07 1.3167e-29
6.6041e-07 1.1995e-29
6.6096e-07 8.1308e-30
6.6151e-07 5.7002e-30
6.6206e-07 4.5179e-30
6.6261e-07 4.1264e-30
6.6317e-07 4.3024e-30
6.6372e-07 3.7544e-30
6.6427e-07 3.7701e-30
6.6483e-07 3.4345e-30
6.6538e-07 2.6587e-30
6.6594e-07 2.3205e-30
6.6649e-07 2.1897e-30
6.6705e-07 1.7076e-30
6.676e-07 1.2305e-30
6.6816e-07 1.0238e-30
6.6872e-07 8.9857e-31
6.6928e-07 6.6843e-31
6.6983e-07 4.6185e-31
6.7039e-07 3.7376e-31
6.7095e-07 2.7418e-31
6.7151e-07 1.9094e-31
6.7207e-07 1.8326e-31
6.7263e-07 1.7759e-31
6.7319e-07 1.2045e-31
6.7376e-07 9.7134e-32
6.7432e-07 1.2055e-31
6.7488e-07 1.1717e-31
6.7544e-07 1.2478e-31
6.7601e-07 1.725e-31
6.7657e-07 2.4518e-31
6.7714e-07 2.8244e-31
6.777e-07 3.4551e-31
6.7827e-07 4.827e-31
6.7883e-07 5.8e-31
6.794e-07 6.4896e-31
6.7996e-07 9.6919e-31
6.8053e-07 1.2514e-30
6.811e-07 1.3594e-30
6.8167e-07 1.7584e-30
6.8224e-07 2.4161e-30
6.8281e-07 2.6936e-30
6.8338e-07 2.5957e-30
6.8395e-07 3.222e-30
6.8452e-07 3.7081e-30
6.8509e-07 3.3438e-30
6.8566e-07 3.397e-30
6.8623e-07 4.5199e-30
6.868e-07 5.5861e-30
6.8738e-07 4.8644e-30
6.8795e-07 3.2459e-30
6.8852e-07 2.846e-30
6.891e-07 3.4864e-30
6.8967e-07 4.5256e-30
6.9025e-07 7.2009e-30
6.9082e-07 1.21e-29
6.914e-07 1.9058e-29
6.9198e-07 3.7917e-29
6.9255e-07 8.1509e-29
6.9313e-07 1.2534e-28
6.9371e-07 1.6026e-28
6.9429e-07 1.8833e-28
6.9487e-07 1.7021e-28
6.9545e-07 1.473e-28
6.9603e-07 1.296e-28
6.9661e-07 8.0741e-29
6.9719e-07 4.1016e-29
6.9777e-07 3.6618e-29
6.9835e-07 6.8238e-29
6.9894e-07 1.1042e-28
6.9952e-07 1.2373e-28
7.001e-07 1.1828e-28
7.0069e-07 1.1453e-28
7.0127e-07 1.1136e-28
7.0186e-07 1.1383e-28
7.0244e-07 1.1471e-28
7.0303e-07 9.4627e-29
7.0361e-07 7.1826e-29
7.042e-07 6.9603e-29
7.0479e-07 7.1695e-29
7.0538e-07 7.3882e-29
7.0596e-07 7.1917e-29
7.0655e-07 5.9009e-29
7.0714e-07 5.1482e-29
7.0773e-07 4.9445e-29
7.0832e-07 4.6406e-29
7.0891e-07 4.1008e-29
7.0951e-07 3.9317e-29
7.101e-07 4.0326e-29
7.1069e-07 3.7904e-29
7.1128e-07 3.2711e-29
7.1188e-07 2.9391e-29
7.1247e-07 3.197e-29
7.1306e-07 3.6391e-29
7.1366e-07 3.6785e-29
7.1425e-07 4.4053e-29
7.1485e-07 5.7506e-29
7.1545e-07 7.0197e-29
7.1604e-07 1.1088e-28
7.1664e-07 2.4406e-28
7.1724e-07 4.3512e-28
7.1784e-07 5.5022e-28
7.1844e-07 5.8859e-28
7.1904e-07 6.1347e-28
7.1964e-07 6.1516e-28
7.2024e-07 5.7502e-28
7.2084e-07 4.1765e-28
7.2144e-07 2.2388e-28
7.2204e-07 1.5504e-28
7.2264e-07 2.0679e-28
7.2324e-07 3.3339e-28
7.2385e-07 4.605e-28
7.2445e-07 4.6572e-28
7.2506e-07 4.386e-28
7.2566e-07 4.2984e-28
7.2627e-07 3.994e-28
7.2687e-07 3.855e-28
7.2748e-07 4.2332e-28
7.2809e-07 3.8934e-28
7.2869e-07 3.3775e-28
7.293e-07 3.6281e-28
7.2991e-07 3.5724e-28
7.3052e-07 3.5436e-28
7.3113e-07 3.4847e-28
7.3174e-07 2.9408e-28
7.3235e-07 2.0517e-28
7.3296e-07 1.6102e-28
7.3357e-07 1.3887e-28
7.3418e-07 1.0553e-28
7.348e-07 1.0202e-28
7.3541e-07 1.0908e-28
7.3602e-07 1.1005e-28
7.3664e-07 1.1425e-28
7.3725e-07 9.5128e-29
7.3787e-07 7.2709e-29
7.3848e-07 6.8928e-29
7.391e-07 6.525e-29
7.3971e-07 5.2401e-29
7.4033e-07 3.7944e-29
7.4095e-07 2.8506e-29
7.4157e-07 2.5193e-29
7.4218e-07 2.1346e-29
7.428e-07 1.7217e-29
7.4342e-07 1.1064e-29
7.4404e-07 8.1681e-30
7.4466e-07 7.2488e-30
7.4529e-07 5.8509e-30
7.4591e-07 5.0118e-30
7.4653e-07 3.9247e-30
7.4715e-07 3.3772e-30
7.4778e-07 2.8388e-30
7.484e-07 2.1837e-30
7.4902e-07 1.8838e-30
7.4965e-07 1.8137e-30
7.5027e-07 1.8554e-30
7.509e-07 1.7351e-30
7.5153e-07 1.393e-30
7.5215e-07 1.0738e-30
7.5278e-07 7.8668e-31
7.5341e-07 6.6942e-31
7.5404e-07 7.2873e-31
7.5467e-07 6.0836e-31
7.553e-07 5.3033e-31
7.5593e-07 5.0222e-31
7.5656e-07 3.9214e-31
7.5719e-07 4.1256e-31
7.5782e-07 6.262e-31
7.5845e-07 6.8852e-31
7.5908e-07 5.2069e-31
7.5972e-07 3.7388e-31
7.6035e-07 3.4586e-31
7.6099e-07 3.2858e-31
7.6162e-07 2.8608e-31
7.6226e-07 2.0414e-31
7.6289e-07 1.3749e-31
7.6353e-07 1.3431e-31
7.6417e-07 1.2003e-31
7.648e-07 7.8372e-32
7.6544e-07 5.9829e-32
7.6608e-07 5.3083e-32
7.6672e-07 4.3338e-32
7.6736e-07 3.4538e-32
7.68e-07 3.178e-32
7.6864e-07 3.5851e-32
7.6928e-07 4.4154e-32
7.6992e-07 5.6946e-32
7.7056e-07 6.5494e-32
7.7121e-07 9.5986e-32
7.7185e-07 1.3287e-31
7.7249e-07 1.675e-31
7.7314e-07 1.9437e-31
7.7378e-07 2.1871e-31
7.7443e-07 2.4652e-31
7.7508e-07 2.9491e-31
7.7572e-07 3.5759e-31
7.7637e-07 3.1195e-31
7.7702e-07 3.3607e-31
7.7766e-07 4.2044e-31
7.7831e-07 4.9512e-31
7.7896e-07 7.082e-31
7.7961e-07 9.449e-31
7.8026e-07 9.9398e-31
7.8091e-07 1.0416e-30
7.8157e-07 1.314e-30
7.8222e-07 1.7965e-30
7.8287e-07 2.2235e-30
7.8352e-07 3.7224e-30
7.8418e-07 6.3716e-30
7.8483e-07 8.5035e-30
7.8549e-07 9.9162e-30
7.8614e-07 1.7534e-29
7.868e-07 3.081e-29
7.8745e-07 3.7808e-29
7.8811e-07 4.1581e-29
7.8877e-07 5.6947e-29
7.8943e-07 7.7673e-29
7.9008e-07 7.8643e-29
7.9074e-07 6.7336e-29
7.914e-07 6.1581e-29
7.9206e-07 6.0577e-29
7.9272e-07 5.697e-29
7.9339e-07 4.0075e-29
7.9405e-07 2.107e-29
7.9471e-07 2.0135e-29
7.9537e-07 4.3149e-29
7.9604e-07 7.712e-29
7.967e-07 8.4372e-29
7.9736e-07 5.6396e-29
7.9803e-07 4.3546e-29
7.987e-07 4.4649e-29
7.9936e-07 5.0876e-29
8.0003e-07 6.5518e-29
8.007e-07 7.7111e-29
8.0136e-07 7.7814e-29
8.0203e-07 7.5584e-29
8.027e-07 7.7676e-29
8.0337e-07 7.438e-29
8.0404e-07 6.9318e-29
8.0471e-07 6.0216e-29
8.0538e-07 4.0473e-29
8.0606e-07 3.3368e-29
8.0673e-07 3.7095e-29
8.074e-07 3.5981e-29
8.0807e-07 4.1448e-29
8.0875e-07 5.3687e-29
8.0942e-07 6.5366e-29
8.101e-07 7.8963e-29
8.1077e-07 1.0309e-28
8.1145e-07 1.3486e-28
8.1213e-07 1.6331e-28
8.1281e-07 2.3572e-28
8.1348e-07 3.4144e-28
8.1416e-07 4.0832e-28
8.1484e-07 4.7872e-28
8.1552e-07 5.519e-28
8.162e-07 5.9299e-28
8.1688e-07 5.7943e-28
8.1756e-07 5.2622e-28
8.1825e-07 5.0568e-28
8.1893e-07 4.4791e-28
8.1961e-07 3.92e-28
8.203e-07 3.0162e-28
8.2098e-07 1.8418e-28
8.2166e-07 1.9758e-28
8.2235e-07 4.681e-28
8.2304e-07 7.528e-28
8.2372e-07 5.8338e-28
8.2441e-07 2.8207e-28
8.251e-07 1.9403e-28
8.2579e-07 2.2421e-28
8.2647e-07 2.2278e-28
8.2716e-07 2.6015e-28
8.2785e-07 3.5792e-28
8.2854e-07 3.7678e-28
8.2924e-07 3.3591e-28
8.2993e-07 3.0737e-28
8.3062e-07 2.7575e-28
8.3131e-07 2.6956e-28
8.3201e-07 2.799e-28
8.327e-07 2.4673e-28
8.334e-07 2.203e-28
8.3409e-07 1.9616e-28
8.3479e-07 1.4235e-28
8.3548e-07 1.3126e-28
8.3618e-07 1.3393e-28
8.3688e-07 1.1527e-28
8.3758e-07 1.0117e-28
8.3827e-07 8.2407e-29
8.3897e-07 6.579e-29
8.3967e-07 5.5072e-29
8.4037e-07 5.3814e-29
8.4107e-07 5.9991e-29
8.4178e-07 4.9284e-29
8.4248e-07 3.0861e-29
8.4318e-07 3.1198e-29
8.4388e-07 3.4285e-29
8.4459e-07 2.6004e-29
8.4529e-07 1.6439e-29
8.46e-07 1.4299e-29
8.467e-07 1.159e-29
8.4741e-07 1.1007e-29
8.4812e-07 1.4636e-29
8.4883e-07 1.5472e-29
8.4953e-07 1.4261e-29
8.5024e-07 1.5192e-29
8.5095e-07 1.9657e-29
8.5166e-07 2.332e-29
8.5237e-07 1.8901e-29
8.5308e-07 1.4381e-29
8.5379e-07 1.5942e-29
8.5451e-07 1.5875e-29
8.5522e-07 1.2745e-29
8.5593e-07 9.9413e-30
8.5665e-07 8.6953e-30
8.5736e-07 9.2389e-30
8.5808e-07 7.262e-30
8.5879e-07 5.4367e-30
8.5951e-07 5.1317e-30
8.6023e-07 3.6102e-30
8.6094e-07 2.637e-30
8.6166e-07 2.2261e-30
8.6238e-07 1.9785e-30
8.631e-07 1.6142e-30
8.6382e-07 1.0533e-30
8.6454e-07 8.7304e-31
8.6526e-07 7.3902e-31
8.6598e-07 5.1008e-31
8.6671e-07 4.098e-31
8.6743e-07 4.6385e-31
8.6815e-07 4.568e-31
8.6888e-07 4.2138e-31
8.696e-07 3.8567e-31
8.7033e-07 4.6057e-31
8.7105e-07 5.7526e-31
8.7178e-07 4.8592e-31
8.7251e-07 4.3736e-31
8.7324e-07 7.3675e-31
8.7396e-07 1.1427e-30
8.7469e-07 1.2622e-30
8.7542e-07 1.546e-30
8.7615e-07 2.0552e-30
8.7688e-07 1.9311e-30
8.7762e-07 3.4707e-30
8.7835e-07 5.4644e-30
8.7908e-07 5.0153e-30
8.7981e-07 4.77e-30
8.8055e-07 6.702e-30
8.8128e-07 8.6149e-30
8.8202e-07 9.852e-30
8.8275e-07 1.0118e-29
8.8349e-07 9.3375e-30
8.8423e-07 8.3068e-30
8.8496e-07 1.1022e-29
8.857e-07 1.8965e-29
8.8644e-07 2.0032e-29
8.8718e-07 1.8423e-29
8.8792e-07 2.0838e-29
8.8866e-07 1.8281e-29
8.894e-07 1.6601e-29
8.9015e-07 2.1797e-29
8.9089e-07 2.6028e-29
8.9163e-07 3.2788e-29
8.9237e-07 7.0585e-29
8.9312e-07 1.2884e-28
8.9386e-07 1.6836e-28
8.9461e-07 2.4378e-28
8.9536e-07 3.5548e-28
8.961e-07 4.6315e-28
8.9685e-07 5.5736e-28
8.976e-07 5.5554e-28
8.9835e-07 6.4639e-28
8.991e-07 7.9765e-28
8.9985e-07 7.1186e-28
9.006e-07 6.5821e-28
9.0135e-07 6.405e-28
9.021e-07 5.8512e-28
9.0285e-07 4.7797e-28
9.0361e-07 3.055e-28
9.0436e-07 2.2792e-28
9.0512e-07 2.3641e-28
9.0587e-07 2.936e-28
9.0663e-07 4.6291e-28
9.0738e-07 6.1957e-28
9.0814e-07 6.572e-28
9.089e-07 6.5107e-28
9.0966e-07 6.4191e-28
9.1041e-07 6.1577e-28
9.1117e-07 5.7092e-28
9.1193e-07 5.3141e-28
9.1269e-07 6.2617e-28
9.1346e-07 7.7312e-28
9.1422e-07 6.7508e-28
9.1498e-07 6.5403e-28
9.1574e-07 7.4641e-28
9.1651e-07 6.5601e-28
9.1727e-07 6.4414e-28
9.1804e-07 6.6974e-28
9.188e-07 5.2391e-28
9.1957e-07 3.7535e-28
9.2034e-07 2.9361e-28
9.211e-07 3.1827e-28
9.2187e-07 3.5038e-28
9.2264e-07 3.1006e-28
9.2341e-07 3.4864e-28
9.2418e-07 4.2228e-28
9.2495e-07 4.1727e-28
9.2572e-07 3.7399e-28
9.265e-07 3.6975e-28
9.2727e-07 4.937e-28
9.2804e-07 7.8498e-28
9.2882e-07 1.0557e-27
9.2959e-07 1.2557e-27
9.3037e-07 1.5127e-27
9.3114e-07 1.873e-27
9.3192e-07 2.3272e-27
9.327e-07 2.7029e-27
9.3348e-07 3.1031e-27
9.3426e-07 3.26e-27
9.3503e-07 2.8881e-27
9.3581e-07 2.6928e-27
9.366e-07 2.7372e-27
9.3738e-07 2.9251e-27
9.3816e-07 2.6273e-27
9.3894e-07 1.7244e-27
9.3972e-07 1.2619e-27
9.4051e-07 1.3981e-27
9.4129e-07 1.5724e-27
9.4208e-07 1.699e-27
9.4286e-07 1.8801e-27
9.4365e-07 2.0568e-27
9.4444e-07 2.2021e-27
9.4523e-07 2.0922e-27
9.4601e-07 2.1037e-27
9.468e-07 2.0448e-27
9.4759e-07 1.9453e-27
9.4838e-07 1.8466e-27
9.4918e-07 1.8248e-27
9.4997e-07 1.9898e-27
9.5076e-07 1.6845e-27
9.5155e-07 1.637e-27
9.5235e-07 2.0403e-27
9.5314e-07 1.8499e-27
9.5394e-07 1.549e-27
9.5473e-07 1.6784e-27
9.5553e-07 1.7768e-27
9.5633e-07 1.7139e-27
9.5712e-07 1.5306e-27
9.5792e-07 1.3292e-27
9.5872e-07 1.5324e-27
9.5952e-07 1.7444e-27
9.6032e-07 1.4705e-27
9.6112e-07 1.247e-27
9.6192e-07 1.2758e-27
9.6273e-07 1.222e-27
9.6353e-07 1.085e-27
9.6433e-07 1.0732e-27
9.6514e-07 1.0337e-27
9.6594e-07 1.0136e-27
9.6675e-07 9.1451e-28
9.6756e-07 6.138e-28
9.6836e-07 4.5072e-28
9.6917e-07 3.9676e-28
9.6998e-07 3.618e-28
9.7079e-07 3.418e-28
9.716e-07 3.4782e-28
9.7241e-07 4.0199e-28
9.7322e-07 5.2726e-28
9.7403e-07 6.2068e-28
9.7484e-07 6.0429e-28
9.7566e-07 6.4122e-28
9.7647e-07 5.9415e-28
9.7729e-07 4.3694e-28
9.781e-07 4.1999e-28
9.7892e-07 4.7392e-28
9.7973e-07 4.7155e-28
9.8055e-07 3.7995e-28
9.8137e-07 2.6278e-28
9.8219e-07 2.5748e-28
9.8301e-07 2.6051e-28
9.8383e-07 2.097e-28
9.8465e-07 1.9124e-28
9.8547e-07 1.5019e-28
9.8629e-07 9.4398e-29
9.8711e-07 9.5405e-29
9.8794e-07 8.7116e-29
9.8876e-07 6.101e-29
9.8959e-07 6.3012e-29
9.9041e-07 6.4497e-29
9.9124e-07 4.5245e-29
9.9207e-07 4.3442e-29
9.9289e-07 5.3299e-29
9.9372e-07 3.6561e-29
9.9455e-07 2.0228e-29
9.9538e-07 1.7311e-29
9.9621e-07 1.7085e-29
9.9704e-07 1.6728e-29
9.9787e-07 1.7996e-29
9.9871e-07 2.0028e-29
9.9954e-07 2.1613e-29
1.0004e-06 2.1343e-29
1.0012e-06 3.2185e-29
1.002e-06 4.7112e-29
1.0029e-06 3.593e-29
1.0037e-06 2.1667e-29
1.0046e-06 2.2685e-29
1.0054e-06 2.045e-29
1.0062e-06 1.6161e-29
1.0071e-06 1.7065e-29
1.0079e-06 2.4146e-29
1.0087e-06 3.6516e-29
1.0096e-06 4.1943e-29
1.0104e-06 2.8321e-29
1.0113e-06 1.7652e-29
1.0121e-06 1.8191e-29
1.013e-06 1.3313e-29
1.0138e-06 9.8683e-30
1.0147e-06 1.3545e-29
1.0155e-06 1.3646e-29
1.0163e-06 1.1371e-29
1.0172e-06 1.1079e-29
1.018e-06 1.1484e-29
1.0189e-06 1.5746e-29
1.0197e-06 1.7473e-29
1.0206e-06 1.3063e-29
1.0214e-06 1.1256e-29
1.0223e-06 1.3196e-29
1.0232e-06 2.2554e-29
1.024e-06 2.6047e-29
1.0249e-06 1.4699e-29
1.0257e-06 7.9849e-30
1.0266e-06 1.0964e-29
1.0274e-06 1.4327e-29
1.0283e-06 1.2574e-29
1.0291e-06 8.3095e-30
1.03e-06 5.2719e-30
