2.8e-07 0
2.8019e-07 0
2.8037e-07 0
2.8056e-07 0
2.8075e-07 0
2.8094e-07 0
2.8112e-07 0
2.8131e-07 0
2.815e-07 0
2.8169e-07 0
2.8187e-07 0
2.8206e-07 0
2.8225e-07 0
2.8244e-07 0
2.8263e-07 0
2.8282e-07 0
2.8301e-07 0
2.8319e-07 0
2.8338e-07 0
2.8357e-07 0
2.8376e-07 0
2.8395e-07 0
2.8414e-07 0
2.8433e-07 0
2.8452e-07 0
2.8471e-07 0
2.849e-07 0
2.8509e-07 0
2.8528e-07 0
2.8547e-07 0
2.8566e-07 0
2.8585e-07 0
2.8604e-07 0
2.8623e-07 0
2.8642e-07 0
2.8662e-07 0
2.8681e-07 0
2.87e-07 0
2.8719e-07 0
2.8738e-07 0
2.8757e-07 0
2.8777e-07 0
2.8796e-07 0
2.8815e-07 0
2.8834e-07 0
2.8853e-07 0
2.8873e-07 0
2.8892e-07 0
2.8911e-07 0
2.8931e-07 0
2.895e-07 0
2.8969e-07 0
2.8989e-07 0
2.9008e-07 0
2.9027e-07 0
2.9047e-07 0
2.9066e-07 0
2.9085e-07 0
2.9105e-07 0
2.9124e-07 0
2.9144e-07 0
2.9163e-07 0
2.9183e-07 0
2.9202e-07 0
2.9222e-07 0
2.9241e-07 0
2.9261e-07 0
2.928e-07 0
2.93e-07 0
2.9319e-07 0
2.9339e-07 0
2.9358e-07 0
2.9378e-07 0
2.9398e-07 0
2.9417e-07 0
2.9437e-07 0
2.9456e-07 0
2.9476e-07 0
2.9496e-07 0
2.9515e-07 0
2.9535e-07 0
2.9555e-07 0
2.9575e-07 0
2.9594e-07 0
2.9614e-07 0
2.9634e-07 0
2.9654e-07 0
2.9673e-07 0
2.9693e-07 0
2.9713e-07 0
2.9733e-07 0
2.9753e-07 0
2.9773e-07 0
2.9792e-07 0
2.9812e-07 0
2.9832e-07 0
2.9852e-07 0
2.9872e-07 0
2.9892e-07 0
2.9912e-07 0
2.9932e-07 0
2.9952e-07 0
2.9972e-07 0
2.9992e-07 0
3.0012e-07 0
3.0032e-07 0
3.0052e-07 0
3.0072e-07 0
3.0092e-07 0
3.0112e-07 0
3.0132e-07 0
3.0152e-07 0
3.0173e-07 0
3.0193e-07 0
3.0213e-07 0
3.0233e-07 0
3.0253e-07 0
3.0273e-07 0
3.0294e-07 0
3.0314e-07 0
3.0334e-07 0
3.0354e-07 0
3.0375e-07 0
3.0395e-07 0
3.0415e-07 0
3.0435e-07 0
3.0456e-07 0
3.0476e-07 0
3.0496e-07 0
3.0517e-07 0
3.0537e-07 0
3.0557e-07 0
3.0578e-07 0
3.0598e-07 0
3.0619e-07 0
3.0639e-07 0
3.066e-07 0
3.068e-07 0
3.0701e-07 0
3.0721e-07 0
3.0742e-07 0
3.0762e-07 0
3.0783e-07 0
3.0803e-07 0
3.0824e-07 0
3.0844e-07 0
3.0865e-07 0
3.0885e-07 0
3.0906e-07 0
3.0927e-07 0
3.0947e-07 0
3.0968e-07 0
3.0989e-07 0
3.1009e-07 0
3.103e-07 0
3.1051e-07 0
3.1071e-07 0
3.1092e-07 0
3.1113e-07 0
3.1134e-07 0
3.1155e-07 0
3.1175e-07 0
3.1196e-07 0
3.1217e-07 0
3.1238e-07 0
3.1259e-07 0
3.1279e-07 0
3.13e-07 0
3.1321e-07 0
3.1342e-07 0
3.1363e-07 0
3.1384e-07 0
3.1405e-07 0
3.1426e-07 0
3.1447e-07 0
3.1468e-07 0
3.1489e-07 0
3.151e-07 0
3.1531e-07 0
3.1552e-07 0
3.1573e-07 0
3.1594e-07 0
3.1615e-07 0
3.1636e-07 0
3.1657e-07 0
3.1679e-07 0
3.17e-07 0
3.1721e-07 0
3.1742e-07 0
3.1763e-07 0
3.1784e-07 0
3.1806e-07 0
3.1827e-07 0
3.1848e-07 0
3.1869e-07 0
3.1891e-07 0
3.1912e-07 0
3.1933e-07 0
3.1955e-07 0
3.1976e-07 0
3.1997e-07 0
3.2019e-07 0
3.204e-07 0
3.2061e-07 0
3.2083e-07 0
3.2104e-07 0
3.2126e-07 0
3.2147e-07 0
3.2168e-07 0
3.219e-07 0
3.2211e-07 0
3.2233e-07 0
3.2254e-07 0
3.2276e-07 0
3.2297e-07 0
3.2319e-07 0
3.2341e-07 0
3.2362e-07 0
3.2384e-07 0
3.2405e-07 0
3.2427e-07 0
3.2449e-07 0
3.247e-07 0
3.2492e-07 0
3.2514e-07 0
3.2535e-07 0
3.2557e-07 0
3.2579e-07 0
3.2601e-07 0
3.2622e-07 0
3.2644e-07 0
3.2666e-07 0
3.2688e-07 0
3.271e-07 0
3.2731e-07 0
3.2753e-07 0
3.2775e-07 0
3.2797e-07 0
3.2819e-07 0
3.2841e-07 0
3.2863e-07 0
3.2885e-07 0
3.2907e-07 0
3.2928e-07 0
3.295e-07 0
3.2972e-07 0
3.2994e-07 0
3.3016e-07 0
3.3039e-07 0
3.3061e-07 0
3.3083e-07 0
3.3105e-07 0
3.3127e-07 0
3.3149e-07 0
3.3171e-07 0
3.3193e-07 0
3.3215e-07 0
3.3238e-07 0
3.326e-07 0
3.3282e-07 0
3.3304e-07 0
3.3326e-07 0
3.3349e-07 0
3.3371e-07 0
3.3393e-07 0
3.3415e-07 0
3.3438e-07 0
3.346e-07 0
3.3482e-07 0
3.3505e-07 0
3.3527e-07 0
3.3549e-07 0
3.3572e-07 0
3.3594e-07 0
3.3617e-07 0
3.3639e-07 0
3.3662e-07 0
3.3684e-07 0
3.3706e-07 0
3.3729e-07 0
3.3752e-07 0
3.3774e-07 0
3.3797e-07 0
3.3819e-07 0
3.3842e-07 0
3.3864e-07 0
3.3887e-07 0
3.391e-07 0
3.3932e-07 0
3.3955e-07 0
3.3977e-07 0
3.4e-07 0
3.4023e-07 0
3.4046e-07 0
3.4068e-07 0
3.4091e-07 0
3.4114e-07 0
3.4137e-07 0
3.4159e-07 0
3.4182e-07 0
3.4205e-07 0
3.4228e-07 0
3.4251e-07 0
3.4273e-07 0
3.4296e-07 0
3.4319e-07 0
3.4342e-07 0
3.4365e-07 0
3.4388e-07 0
3.4411e-07 0
3.4434e-07 0
3.4457e-07 0
3.448e-07 0
3.4503e-07 0
3.4526e-07 0
3.4549e-07 0
3.4572e-07 0
3.4595e-07 0
3.4618e-07 0
3.4641e-07 0
3.4664e-07 0
3.4688e-07 0
3.4711e-07 0
3.4734e-07 0
3.4757e-07 0
3.478e-07 0
3.4803e-07 0
3.4827e-07 0
3.485e-07 0
3.4873e-07 0
3.4896e-07 0
3.492e-07 0
3.4943e-07 0
3.4966e-07 0
3.499e-07 0
3.5013e-07 0
3.5036e-07 0
3.506e-07 0
3.5083e-07 0
3.5107e-07 0
3.513e-07 0
3.5154e-07 0
3.5177e-07 0
3.52e-07 0
3.5224e-07 0
3.5247e-07 0
3.5271e-07 0
3.5295e-07 0
3.5318e-07 0
3.5342e-07 0
3.5365e-07 0
3.5389e-07 0
3.5412e-07 0
3.5436e-07 0
3.546e-07 0
3.5483e-07 0
3.5507e-07 0
3.5531e-07 0
3.5555e-07 0
3.5578e-07 0
3.5602e-07 0
3.5626e-07 0
3.565e-07 0
3.5673e-07 0
3.5697e-07 0
3.5721e-07 0
3.5745e-07 0
3.5769e-07 0
3.5793e-07 0
3.5816e-07 0
3.584e-07 0
3.5864e-07 0
3.5888e-07 0
3.5912e-07 0
3.5936e-07 0
3.596e-07 0
3.5984e-07 0
3.6008e-07 0
3.6032e-07 0
3.6056e-07 0
3.608e-07 0
3.6104e-07 0
3.6128e-07 0
3.6153e-07 0
3.6177e-07 0
3.6201e-07 0
3.6225e-07 0
3.6249e-07 0
3.6273e-07 0
3.6298e-07 0
3.6322e-07 0
3.6346e-07 0
3.637e-07 0
3.6395e-07 0
3.6419e-07 0
3.6443e-07 0
3.6468e-07 0
3.6492e-07 0
3.6516e-07 0
3.6541e-07 0
3.6565e-07 0
3.6589e-07 0
3.6614e-07 0
3.6638e-07 0
3.6663e-07 0
3.6687e-07 0
3.6712e-07 0
3.6736e-07 0
3.6761e-07 0
3.6785e-07 0
3.681e-07 0
3.6834e-07 0
3.6859e-07 0
3.6884e-07 0
3.6908e-07 0
3.6933e-07 0
3.6957e-07 0
3.6982e-07 0
3.7007e-07 0
3.7031e-07 0
3.7056e-07 0
3.7081e-07 0
3.7106e-07 0
3.713e-07 0
3.7155e-07 0
3.718e-07 0
3.7205e-07 0
3.723e-07 0
3.7255e-07 0
3.7279e-07 0
3.7304e-07 0
3.7329e-07 0
3.7354e-07 0
3.7379e-07 0
3.7404e-07 0
3.7429e-07 0
3.7454e-07 0
3.7479e-07 0
3.7504e-07 0
3.7529e-07 0
3.7554e-07 0
3.7579e-07 0
3.7604e-07 0
3.7629e-07 0
3.7654e-07 0
3.7679e-07 0
3.7705e-07 0
3.773e-07 0
3.7755e-07 0
3.778e-07 0
3.7805e-07 0
3.7831e-07 0
3.7856e-07 0
3.7881e-07 0
3.7906e-07 0
3.7932e-07 0
3.7957e-07 0
3.7982e-07 0
3.8008e-07 0
3.8033e-07 0
3.8058e-07 0
3.8084e-07 0
3.8109e-07 0
3.8135e-07 0
3.816e-07 0
3.8186e-07 0
3.8211e-07 0
3.8237e-07 0
3.8262e-07 0
3.8288e-07 0
3.8313e-07 0
3.8339e-07 0
3.8364e-07 0
3.839e-07 0
3.8416e-07 0
3.8441e-07 0
3.8467e-07 0
3.8493e-07 0
3.8518e-07 1.8316e-40
3.8544e-07 6.447e-39
3.857e-07 4.7122e-38
3.8595e-07 1.8153e-37
3.8621e-07 4.605e-37
3.8647e-07 9.5907e-37
3.8673e-07 1.8435e-36
3.8699e-07 3.304e-36
3.8724e-07 5.6089e-36
3.875e-07 9.0132e-36
3.8776e-07 1.4092e-35
3.8802e-07 2.2266e-35
3.8828e-07 9.1814e-35
3.8854e-07 1.0646e-33
3.888e-07 8.1872e-33
3.8906e-07 1.0551e-32
3.8932e-07 2.4412e-32
3.8958e-07 4.0437e-32
3.8984e-07 6.361e-32
3.901e-07 9.3717e-32
3.9036e-07 1.1445e-31
3.9062e-07 1.3321e-31
3.9088e-07 1.4532e-31
3.9114e-07 1.3693e-31
3.914e-07 1.1109e-31
3.9166e-07 8.7116e-32
3.9192e-07 6.359e-32
3.9218e-07 7.1611e-32
3.9245e-07 8.6342e-32
3.9271e-07 9.9098e-32
3.9297e-07 1.0682e-31
3.9323e-07 8.9186e-32
3.935e-07 6.0697e-32
3.9376e-07 3.3521e-32
3.9402e-07 1.9226e-32
3.9428e-07 1.4563e-32
3.9455e-07 2.2551e-32
3.9481e-07 4.2706e-32
3.9507e-07 5.8261e-32
3.9534e-07 6.4288e-32
3.956e-07 7.4774e-32
3.9587e-07 1.0578e-31
3.9613e-07 2.0798e-31
3.9639e-07 3.7849e-31
3.9666e-07 4.9976e-31
3.9692e-07 7.0636e-31
3.9719e-07 1.1129e-30
3.9745e-07 1.1812e-30
3.9772e-07 7.8024e-31
3.9798e-07 5.2394e-31
3.9825e-07 5.269e-31
3.9852e-07 5.8867e-31
3.9878e-07 6.1385e-31
3.9905e-07 6.2729e-31
3.9931e-07 6.1291e-31
3.9958e-07 6.2712e-31
3.9985e-07 5.9706e-31
4.0011e-07 5.1711e-31
4.0038e-07 4.483e-31
4.0065e-07 3.7975e-31
4.0092e-07 3.1463e-31
4.0118e-07 2.5634e-31
4.0145e-07 2.2557e-31
4.0172e-07 2.0415e-31
4.0199e-07 2.0227e-31
4.0226e-07 1.7132e-31
4.0252e-07 1.2768e-31
4.0279e-07 1.1702e-31
4.0306e-07 1.1116e-31
4.0333e-07 8.8651e-32
4.036e-07 7.0099e-32
4.0387e-07 5.9774e-32
4.0414e-07 6.7572e-32
4.0441e-07 7.2915e-32
4.0468e-07 5.5516e-32
4.0495e-07 3.8564e-32
4.0522e-07 3.3688e-32
4.0549e-07 2.9259e-32
4.0576e-07 1.9871e-32
4.0603e-07 1.43e-32
4.063e-07 1.4943e-32
4.0657e-07 1.2044e-32
4.0684e-07 7.1713e-33
4.0712e-07 4.3827e-33
4.0739e-07 6.4376e-33
4.0766e-07 5.5604e-33
4.0793e-07 5.4397e-33
4.082e-07 7.1224e-33
4.0848e-07 1.2113e-32
4.0875e-07 1.0633e-32
4.0902e-07 8.5393e-33
4.0929e-07 2.7621e-33
4.0957e-07 1.8687e-34
4.0984e-07 1.2325e-35
4.1011e-07 1.0949e-35
4.1039e-07 2.0592e-35
4.1066e-07 8.1178e-35
4.1094e-07 1.3567e-33
4.1121e-07 4.8533e-33
4.1149e-07 3.42e-33
4.1176e-07 3.1627e-33
4.1203e-07 1.0565e-32
4.1231e-07 2.4532e-32
4.1258e-07 3.9222e-32
4.1286e-07 4.9849e-32
4.1314e-07 4.9169e-32
4.1341e-07 4.6937e-32
4.1369e-07 4.4428e-32
4.1396e-07 4.511e-32
4.1424e-07 7.0258e-32
4.1452e-07 1.1496e-31
4.1479e-07 1.7671e-31
4.1507e-07 2.5447e-31
4.1535e-07 3.1758e-31
4.1562e-07 3.4377e-31
4.159e-07 4.1643e-31
4.1618e-07 5.4332e-31
4.1646e-07 7.3469e-31
4.1673e-07 8.2134e-31
4.1701e-07 5.9168e-31
4.1729e-07 3.3513e-31
4.1757e-07 2.7899e-31
4.1785e-07 3.2222e-31
4.1813e-07 3.369e-31
4.1841e-07 3.2662e-31
4.1869e-07 3.0823e-31
4.1897e-07 2.8678e-31
4.1924e-07 2.6856e-31
4.1952e-07 2.4143e-31
4.198e-07 1.8884e-31
4.2008e-07 1.3229e-31
4.2037e-07 1.1089e-31
4.2065e-07 9.3081e-32
4.2093e-07 7.1528e-32
4.2121e-07 6.2898e-32
4.2149e-07 4.9165e-32
4.2177e-07 3.8325e-32
4.2205e-07 3.41e-32
4.2233e-07 2.4855e-32
4.2262e-07 1.8804e-32
4.229e-07 1.28e-32
4.2318e-07 9.2584e-33
4.2346e-07 6.2499e-33
4.2374e-07 4.7628e-33
4.2403e-07 4.2518e-33
4.2431e-07 4.8786e-33
4.2459e-07 2.8851e-32
4.2488e-07 5.8146e-32
4.2516e-07 8.0029e-32
4.2544e-07 8.5638e-32
4.2573e-07 1.2174e-31
4.2601e-07 1.9035e-31
4.263e-07 2.0489e-31
4.2658e-07 1.3889e-31
4.2687e-07 8.2465e-32
4.2715e-07 8.4252e-32
4.2744e-07 1.1121e-31
4.2772e-07 1.1101e-31
4.2801e-07 8.9883e-32
4.2829e-07 8.4366e-32
4.2858e-07 8.9952e-32
4.2886e-07 1.0009e-31
4.2915e-07 9.5864e-32
4.2944e-07 7.7186e-32
4.2972e-07 5.7185e-32
4.3001e-07 4.9638e-32
4.303e-07 4.5024e-32
4.3058e-07 2.9612e-32
4.3087e-07 1.489e-32
4.3116e-07 8.7015e-33
4.3145e-07 9.0024e-33
4.3174e-07 7.8185e-33
4.3202e-07 5.7595e-33
4.3231e-07 5.0507e-33
4.326e-07 3.2011e-33
4.3289e-07 2.0942e-33
4.3318e-07 1.4661e-33
4.3347e-07 2.9703e-34
4.3376e-07 7.1652e-36
4.3405e-07 5.4643e-36
4.3434e-07 5.8519e-36
4.3463e-07 1.9443e-35
4.3492e-07 2.0068e-34
4.3521e-07 1.5089e-33
4.355e-07 5.9345e-33
4.3579e-07 8.6724e-33
4.3608e-07 8.5033e-33
4.3637e-07 4.127e-33
4.3666e-07 2.1668e-33
4.3695e-07 9.4226e-35
4.3724e-07 9.1309e-34
4.3754e-07 7.8391e-33
4.3783e-07 1.7771e-32
4.3812e-07 2.3698e-32
4.3841e-07 3.9941e-32
4.387e-07 8.2786e-32
4.39e-07 1.433e-31
4.3929e-07 1.8692e-31
4.3958e-07 1.9953e-31
4.3988e-07 2.5406e-31
4.4017e-07 3.3017e-31
4.4046e-07 3.7752e-31
4.4076e-07 4.4828e-31
4.4105e-07 6.8314e-31
4.4135e-07 1.1402e-30
4.4164e-07 1.5076e-30
4.4194e-07 1.6243e-30
4.4223e-07 2.2951e-30
4.4253e-07 3.9546e-30
4.4282e-07 5.0118e-30
4.4312e-07 4.1093e-30
4.4341e-07 2.5055e-30
4.4371e-07 1.7059e-30
4.44e-07 1.708e-30
4.443e-07 2.0317e-30
4.446e-07 2.3243e-30
4.4489e-07 2.595e-30
4.4519e-07 2.5474e-30
4.4549e-07 2.4953e-30
4.4579e-07 2.4588e-30
4.4608e-07 2.1048e-30
4.4638e-07 1.8457e-30
4.4668e-07 1.5317e-30
4.4698e-07 1.3151e-30
4.4728e-07 1.2171e-30
4.4757e-07 1.024e-30
4.4787e-07 8.2619e-31
4.4817e-07 6.3016e-31
4.4847e-07 5.517e-31
4.4877e-07 4.6859e-31
4.4907e-07 3.6978e-31
4.4937e-07 2.9613e-31
4.4967e-07 2.0392e-31
4.4997e-07 1.5156e-31
4.5027e-07 1.3272e-31
4.5057e-07 1.0727e-31
4.5087e-07 8.9228e-32
4.5117e-07 6.338e-32
4.5147e-07 3.3446e-32
4.5177e-07 2.7119e-32
4.5208e-07 3.0736e-32
4.5238e-07 4.4789e-32
4.5268e-07 7.6105e-32
4.5298e-07 1.0678e-31
4.5328e-07 9.7912e-32
4.5359e-07 5.5823e-32
4.5389e-07 3.7219e-32
4.5419e-07 5.768e-32
4.545e-07 8.5294e-32
4.548e-07 8.9509e-32
4.551e-07 8.0923e-32
4.5541e-07 7.5813e-32
4.5571e-07 8.5017e-32
4.5601e-07 9.3561e-32
4.5632e-07 1.0004e-31
4.5662e-07 1.2492e-31
4.5693e-07 1.3384e-31
4.5723e-07 8.8248e-32
4.5754e-07 5.0202e-32
4.5784e-07 5.5949e-32
4.5815e-07 7.1641e-32
4.5846e-07 7.1116e-32
4.5876e-07 6.2247e-32
4.5907e-07 5.7095e-32
4.5937e-07 4.7872e-32
4.5968e-07 3.6997e-32
4.5999e-07 4.1665e-32
4.6029e-07 3.8784e-32
4.606e-07 2.0959e-32
4.6091e-07 1.3846e-32
4.6122e-07 1.1728e-32
4.6152e-07 6.9456e-33
4.6183e-07 3.285e-33
4.6214e-07 2.6474e-33
4.6245e-07 7.7288e-33
4.6276e-07 7.2584e-33
4.6307e-07 2.8625e-33
4.6338e-07 3.6301e-33
4.6368e-07 6.0598e-33
4.6399e-07 1.3553e-32
4.643e-07 1.2074e-32
4.6461e-07 1.1848e-32
4.6492e-07 1.2702e-32
4.6523e-07 1.7038e-32
4.6554e-07 3.6713e-32
4.6586e-07 8.222e-32
4.6617e-07 1.637e-31
4.6648e-07 2.9742e-31
4.6679e-07 5.1703e-31
4.671e-07 7.5145e-31
4.6741e-07 8.254e-31
4.6772e-07 7.2424e-31
4.6804e-07 6.2031e-31
4.6835e-07 7.1662e-31
4.6866e-07 9.9048e-31
4.6897e-07 1.1494e-30
4.6929e-07 1.4412e-30
4.696e-07 1.995e-30
4.6991e-07 2.05e-30
4.7023e-07 1.584e-30
4.7054e-07 1.209e-30
4.7086e-07 1.1828e-30
4.7117e-07 1.2448e-30
4.7148e-07 1.0479e-30
4.718e-07 8.6174e-31
4.7211e-07 9.4856e-31
4.7243e-07 1.0288e-30
4.7274e-07 1.066e-30
4.7306e-07 1.0846e-30
4.7338e-07 9.488e-31
4.7369e-07 7.3152e-31
4.7401e-07 6.1095e-31
4.7432e-07 5.9483e-31
4.7464e-07 5.3504e-31
4.7496e-07 3.9059e-31
4.7527e-07 2.9534e-31
4.7559e-07 2.5715e-31
4.7591e-07 2.2944e-31
4.7623e-07 2.0506e-31
4.7654e-07 1.7039e-31
4.7686e-07 1.4255e-31
4.7718e-07 1.1061e-31
4.775e-07 7.2406e-32
4.7782e-07 5.8671e-32
4.7814e-07 4.3983e-32
4.7846e-07 2.954e-32
4.7878e-07 2.5824e-32
4.7909e-07 1.4337e-32
4.7941e-07 4.3682e-33
4.7973e-07 1.0705e-33
4.8005e-07 9.612e-34
4.8038e-07 3.4986e-34
4.807e-07 2.4568e-34
4.8102e-07 1.3126e-33
4.8134e-07 4.866e-33
4.8166e-07 7.8043e-33
4.8198e-07 1.5161e-32
4.823e-07 2.2621e-32
4.8262e-07 3.3701e-32
4.8295e-07 6.5462e-32
4.8327e-07 1.2827e-31
4.8359e-07 2.1511e-31
4.8391e-07 3.3574e-31
4.8424e-07 5.8173e-31
4.8456e-07 1.03e-30
4.8488e-07 1.5804e-30
4.8521e-07 1.8134e-30
4.8553e-07 1.665e-30
4.8585e-07 1.3176e-30
4.8618e-07 9.6555e-31
4.865e-07 9.0877e-31
4.8683e-07 1.1168e-30
4.8715e-07 1.2747e-30
4.8748e-07 1.267e-30
4.878e-07 1.1904e-30
4.8813e-07 1.0957e-30
4.8846e-07 1.0495e-30
4.8878e-07 1.1384e-30
4.8911e-07 1.29e-30
4.8943e-07 1.1978e-30
4.8976e-07 9.1062e-31
4.9009e-07 7.189e-31
4.9041e-07 6.8703e-31
4.9074e-07 6.7251e-31
4.9107e-07 6.3068e-31
4.914e-07 5.4135e-31
4.9173e-07 4.3392e-31
4.9205e-07 3.8345e-31
4.9238e-07 3.6257e-31
4.9271e-07 3.2333e-31
4.9304e-07 2.5568e-31
4.9337e-07 1.8953e-31
4.937e-07 1.4172e-31
4.9403e-07 1.1723e-31
4.9436e-07 9.9598e-32
4.9469e-07 8.0377e-32
4.9502e-07 5.9972e-32
4.9535e-07 4.5101e-32
4.9568e-07 3.8849e-32
4.9601e-07 3.714e-32
4.9634e-07 3.2756e-32
4.9667e-07 2.8881e-32
4.97e-07 4.6284e-32
4.9733e-07 7.411e-32
4.9767e-07 1.1229e-31
4.98e-07 2.173e-31
4.9833e-07 3.7626e-31
4.9866e-07 5.1254e-31
4.99e-07 6.4023e-31
4.9933e-07 8.1886e-31
4.9966e-07 1.0071e-30
5e-07 1.2584e-30
5.0033e-07 1.5264e-30
5.0066e-07 1.8135e-30
5.01e-07 2.28e-30
5.0133e-07 3.3242e-30
5.0167e-07 4.7753e-30
5.02e-07 5.5585e-30
5.0234e-07 5.6298e-30
5.0267e-07 7.1407e-30
5.0301e-07 1.02e-29
5.0334e-07 1.5778e-29
5.0368e-07 2.3281e-29
5.0402e-07 2.5435e-29
5.0435e-07 2.1654e-29
5.0469e-07 1.4752e-29
5.0503e-07 9.4618e-30
5.0536e-07 9.3076e-30
5.057e-07 1.252e-29
5.0604e-07 1.3195e-29
5.0637e-07 1.1388e-29
5.0671e-07 1.2635e-29
5.0705e-07 1.3955e-29
5.0739e-07 1.422e-29
5.0773e-07 1.3645e-29
5.0807e-07 1.2204e-29
5.0841e-07 1.0366e-29
5.0875e-07 8.955e-30
5.0909e-07 7.9371e-30
5.0942e-07 7.6638e-30
5.0976e-07 6.9172e-30
5.1011e-07 5.5109e-30
5.1045e-07 4.7043e-30
5.1079e-07 3.5003e-30
5.1113e-07 3.2778e-30
5.1147e-07 2.6862e-30
5.1181e-07 2.188e-30
5.1215e-07 2.0038e-30
5.1249e-07 1.6388e-30
5.1284e-07 1.3283e-30
5.1318e-07 9.997e-31
5.1352e-07 7.4424e-31
5.1386e-07 5.4594e-31
5.1421e-07 4.2665e-31
5.1455e-07 3.5097e-31
5.1489e-07 3.2546e-31
5.1524e-07 3.0043e-31
5.1558e-07 2.5929e-31
5.1592e-07 2.2152e-31
5.1627e-07 2.0571e-31
5.1661e-07 1.9512e-31
5.1696e-07 1.7648e-31
5.173e-07 1.5387e-31
5.1765e-07 1.4285e-31
5.1799e-07 1.3078e-31
5.1834e-07 1.194e-31
5.1869e-07 1.086e-31
5.1903e-07 1.0988e-31
5.1938e-07 1.0541e-31
5.1972e-07 8.944e-32
5.2007e-07 7.7875e-32
5.2042e-07 6.8676e-32
5.2077e-07 6.7642e-32
5.2111e-07 6.9513e-32
5.2146e-07 7.5026e-32
5.2181e-07 9.6259e-32
5.2216e-07 1.2184e-31
5.2251e-07 1.5175e-31
5.2285e-07 2.4229e-31
5.232e-07 4.9952e-31
5.2355e-07 9.224e-31
5.239e-07 1.4741e-30
5.2425e-07 2.0386e-30
5.246e-07 2.0956e-30
5.2495e-07 1.824e-30
5.253e-07 1.3874e-30
5.2565e-07 8.2552e-31
5.26e-07 4.8681e-31
5.2635e-07 6.9655e-31
5.2671e-07 1.2109e-30
5.2706e-07 1.4762e-30
5.2741e-07 1.2377e-30
5.2776e-07 9.1558e-31
5.2811e-07 7.6314e-31
5.2847e-07 8.279e-31
5.2882e-07 9.9575e-31
5.2917e-07 1.0096e-30
5.2953e-07 9.6208e-31
5.2988e-07 9.7466e-31
5.3023e-07 9.9857e-31
5.3059e-07 1.0044e-30
5.3094e-07 8.6971e-31
5.3129e-07 7.0983e-31
5.3165e-07 6.3469e-31
5.32e-07 5.7783e-31
5.3236e-07 5.3626e-31
5.3271e-07 4.9028e-31
5.3307e-07 3.854e-31
5.3343e-07 2.9581e-31
5.3378e-07 2.706e-31
5.3414e-07 2.6262e-31
5.3449e-07 2.7397e-31
5.3485e-07 3.3383e-31
5.3521e-07 3.9204e-31
5.3557e-07 4.1931e-31
5.3592e-07 4.5303e-31
5.3628e-07 5.5275e-31
5.3664e-07 6.2219e-31
5.37e-07 6.9837e-31
5.3736e-07 7.5319e-31
5.3771e-07 9.6603e-31
5.3807e-07 1.176e-30
5.3843e-07 1.3672e-30
5.3879e-07 1.6816e-30
5.3915e-07 2.0289e-30
5.3951e-07 2.5497e-30
5.3987e-07 3.6282e-30
5.4023e-07 4.8683e-30
5.4059e-07 7.02e-30
5.4095e-07 9.7641e-30
5.4131e-07 1.1145e-29
5.4167e-07 1.0686e-29
5.4204e-07 9.3597e-30
5.424e-07 7.9654e-30
5.4276e-07 6.5072e-30
5.4312e-07 6.4001e-30
5.4349e-07 8.3952e-30
5.4385e-07 8.787e-30
5.4421e-07 6.9511e-30
5.4457e-07 6.4113e-30
5.4494e-07 6.5883e-30
5.453e-07 6.5986e-30
5.4567e-07 7.9878e-30
5.4603e-07 9.8403e-30
5.4639e-07 9.9027e-30
5.4676e-07 8.2736e-30
5.4712e-07 6.039e-30
5.4749e-07 4.8288e-30
5.4785e-07 4.405e-30
5.4822e-07 3.8586e-30
5.4859e-07 3.1005e-30
5.4895e-07 2.9849e-30
5.4932e-07 3.0797e-30
5.4968e-07 3.2001e-30
5.5005e-07 2.8069e-30
5.5042e-07 2.1924e-30
5.5079e-07 1.8538e-30
5.5115e-07 1.7023e-30
5.5152e-07 1.4183e-30
5.5189e-07 1.0262e-30
5.5226e-07 8.1446e-31
5.5263e-07 7.1738e-31
5.53e-07 5.7036e-31
5.5336e-07 4.666e-31
5.5373e-07 3.743e-31
5.541e-07 3.0197e-31
5.5447e-07 3.0053e-31
5.5484e-07 2.7905e-31
5.5521e-07 2.152e-31
5.5558e-07 1.6614e-31
5.5596e-07 1.1435e-31
5.5633e-07 6.5541e-32
5.567e-07 4.3704e-32
5.5707e-07 6.5975e-32
5.5744e-07 1.0785e-31
5.5781e-07 1.4578e-31
5.5819e-07 1.8306e-31
5.5856e-07 2.3961e-31
5.5893e-07 2.7773e-31
5.593e-07 3.0019e-31
5.5968e-07 3.4627e-31
5.6005e-07 4.6021e-31
5.6042e-07 5.0199e-31
5.608e-07 5.4345e-31
5.6117e-07 5.5173e-31
5.6155e-07 5.1467e-31
5.6192e-07 5.6983e-31
5.623e-07 6.6663e-31
5.6267e-07 7.3916e-31
5.6305e-07 6.5849e-31
5.6342e-07 4.6465e-31
5.638e-07 4.6326e-31
5.6418e-07 6.1216e-31
5.6455e-07 6.5034e-31
5.6493e-07 6.7152e-31
5.6531e-07 7.0152e-31
5.6568e-07 7.4623e-31
5.6606e-07 9.9146e-31
5.6644e-07 1.5359e-30
5.6682e-07 2.1072e-30
5.672e-07 3.0471e-30
5.6757e-07 4.9642e-30
5.6795e-07 8.6191e-30
5.6833e-07 1.4097e-29
5.6871e-07 1.9447e-29
5.6909e-07 2.1712e-29
5.6947e-07 1.9872e-29
5.6985e-07 1.8117e-29
5.7023e-07 1.4685e-29
5.7061e-07 9.0205e-30
5.7099e-07 5.9947e-30
5.7137e-07 7.1185e-30
5.7176e-07 1.0674e-29
5.7214e-07 1.4049e-29
5.7252e-07 1.3507e-29
5.729e-07 1.2307e-29
5.7328e-07 1.1344e-29
5.7367e-07 1.0724e-29
5.7405e-07 1.1838e-29
5.7443e-07 1.2484e-29
5.7482e-07 1.2068e-29
5.752e-07 9.7887e-30
5.7558e-07 9.3374e-30
5.7597e-07 8.9141e-30
5.7635e-07 7.9908e-30
5.7674e-07 7.4741e-30
5.7712e-07 8.0469e-30
5.7751e-07 7.7589e-30
5.7789e-07 6.1389e-30
5.7828e-07 4.7189e-30
5.7866e-07 4.0222e-30
5.7905e-07 3.5271e-30
5.7944e-07 3.4154e-30
5.7982e-07 3.0028e-30
5.8021e-07 2.5975e-30
5.806e-07 2.6757e-30
5.8098e-07 2.6197e-30
5.8137e-07 2.6396e-30
5.8176e-07 2.8527e-30
5.8215e-07 2.9274e-30
5.8254e-07 2.9892e-30
5.8293e-07 3.205e-30
5.8331e-07 3.5827e-30
5.837e-07 3.8439e-30
5.8409e-07 4.1474e-30
5.8448e-07 4.3088e-30
5.8487e-07 4.5699e-30
5.8526e-07 4.971e-30
5.8565e-07 6.0439e-30
5.8605e-07 8.4089e-30
5.8644e-07 1.1179e-29
5.8683e-07 1.4297e-29
5.8722e-07 2.0404e-29
5.8761e-07 3.0665e-29
5.88e-07 4.8762e-29
5.884e-07 7.4683e-29
5.8879e-07 9.4692e-29
5.8918e-07 1.0421e-28
5.8958e-07 1.0053e-28
5.8997e-07 1.042e-28
5.9036e-07 9.2263e-29
5.9076e-07 7.8169e-29
5.9115e-07 7.5551e-29
5.9155e-07 8.1927e-29
5.9194e-07 9.4565e-29
5.9234e-07 9.7482e-29
5.9273e-07 7.6233e-29
5.9313e-07 5.5177e-29
5.9352e-07 4.7303e-29
5.9392e-07 6.6951e-29
5.9431e-07 9.7548e-29
5.9471e-07 1.0738e-28
5.9511e-07 8.7185e-29
5.9551e-07 6.2857e-29
5.959e-07 5.4687e-29
5.963e-07 4.7231e-29
5.967e-07 5.0883e-29
5.971e-07 5.578e-29
5.975e-07 5.0042e-29
5.9789e-07 4.5353e-29
5.9829e-07 3.5441e-29
5.9869e-07 3.036e-29
5.9909e-07 3.1109e-29
5.9949e-07 2.679e-29
5.9989e-07 2.1938e-29
6.0029e-07 1.8101e-29
6.0069e-07 1.3894e-29
6.0109e-07 1.0979e-29
6.015e-07 1.0285e-29
6.019e-07 9.2539e-30
6.023e-07 6.5937e-30
6.027e-07 5.3202e-30
6.031e-07 4.7798e-30
6.0351e-07 3.5711e-30
6.0391e-07 2.5447e-30
6.0431e-07 2.1866e-30
6.0471e-07 1.8248e-30
6.0512e-07 1.4164e-30
6.0552e-07 1.2619e-30
6.0593e-07 1.107e-30
6.0633e-07 8.0886e-31
6.0674e-07 5.7944e-31
6.0714e-07 5.014e-31
6.0755e-07 4.6593e-31
6.0795e-07 3.8451e-31
6.0836e-07 3.0996e-31
6.0876e-07 2.7198e-31
6.0917e-07 2.2855e-31
6.0958e-07 1.8929e-31
6.0998e-07 1.6733e-31
6.1039e-07 1.4501e-31
6.108e-07 1.1948e-31
6.112e-07 1.0285e-31
6.1161e-07 8.9181e-32
6.1202e-07 8.2925e-32
6.1243e-07 8.4003e-32
6.1284e-07 6.7116e-32
6.1325e-07 5.0699e-32
6.1366e-07 5.0863e-32
6.1407e-07 5.3882e-32
6.1448e-07 5.5798e-32
6.1489e-07 6.7108e-32
6.153e-07 6.8563e-32
6.1571e-07 6.2426e-32
6.1612e-07 6.5876e-32
6.1653e-07 7.6378e-32
6.1694e-07 8.3845e-32
6.1735e-07 8.9153e-32
6.1776e-07 1.0097e-31
6.1818e-07 1.2713e-31
6.1859e-07 1.4432e-31
6.19e-07 1.42e-31
6.1942e-07 1.4898e-31
6.1983e-07 1.6134e-31
6.2024e-07 1.6484e-31
6.2066e-07 1.7025e-31
6.2107e-07 1.7781e-31
6.2149e-07 1.9381e-31
6.219e-07 2.119e-31
6.2232e-07 2.4346e-31
6.2273e-07 2.6656e-31
6.2315e-07 3.1442e-31
6.2356e-07 3.8696e-31
6.2398e-07 4.6715e-31
6.2439e-07 6.6943e-31
6.2481e-07 1.1293e-30
6.2523e-07 1.662e-30
6.2565e-07 2.447e-30
6.2606e-07 4.0245e-30
6.2648e-07 6.2702e-30
6.269e-07 9.1171e-30
6.2732e-07 1.2044e-29
6.2774e-07 1.5218e-29
6.2816e-07 1.6512e-29
6.2857e-07 1.5537e-29
6.2899e-07 1.3683e-29
6.2941e-07 1.2098e-29
6.2983e-07 9.4162e-30
6.3025e-07 5.675e-30
6.3068e-07 3.2324e-30
6.311e-07 4.5696e-30
6.3152e-07 8.8835e-30
6.3194e-07 1.3946e-29
6.3236e-07 1.4029e-29
6.3278e-07 1.083e-29
6.3321e-07 8.4777e-30
6.3363e-07 7.1003e-30
6.3405e-07 7.1578e-30
6.3447e-07 8.1653e-30
6.349e-07 8.8152e-30
6.3532e-07 7.7841e-30
6.3575e-07 6.989e-30
6.3617e-07 6.8876e-30
6.3659e-07 6.2726e-30
6.3702e-07 6.6759e-30
6.3744e-07 6.8342e-30
6.3787e-07 5.4036e-30
6.383e-07 5.152e-30
6.3872e-07 5.4398e-30
6.3915e-07 5.5176e-30
6.3957e-07 5.4716e-30
6.4e-07 5.2774e-30
6.4043e-07 5.3957e-30
6.4086e-07 5.8833e-30
6.4128e-07 5.7854e-30
6.4171e-07 5.4253e-30
6.4214e-07 5.3186e-30
6.4257e-07 5.6871e-30
6.43e-07 6.3761e-30
6.4343e-07 7.1877e-30
6.4386e-07 7.7488e-30
6.4429e-07 9.4199e-30
6.4472e-07 1.1256e-29
6.4515e-07 1.4296e-29
6.4558e-07 2.0619e-29
6.4601e-07 3.1489e-29
6.4644e-07 4.3781e-29
6.4687e-07 5.6105e-29
6.473e-07 7.535e-29
6.4773e-07 9.077e-29
6.4817e-07 8.8563e-29
6.486e-07 7.8413e-29
6.4903e-07 6.9596e-29
6.4946e-07 6.0786e-29
6.499e-07 4.6989e-29
6.5033e-07 2.9416e-29
6.5077e-07 2.589e-29
6.512e-07 5.1461e-29
6.5164e-07 8.0265e-29
6.5207e-07 8.0227e-29
6.5251e-07 4.9542e-29
6.5294e-07 3.1237e-29
6.5338e-07 3.1991e-29
6.5381e-07 3.1379e-29
6.5425e-07 3.582e-29
6.5469e-07 4.6488e-29
6.5512e-07 5.0916e-29
6.5556e-07 5.023e-29
6.56e-07 4.1786e-29
6.5644e-07 3.7662e-29
6.5687e-07 3.7878e-29
6.5731e-07 3.7498e-29
6.5775e-07 3.4211e-29
6.5819e-07 2.6136e-29
6.5863e-07 2.2921e-29
6.5907e-07 1.8474e-29
6.5951e-07 1.3922e-29
6.5995e-07 1.3275e-29
6.6039e-07 1.2486e-29
6.6083e-07 8.4438e-30
6.6127e-07 6.8702e-30
6.6171e-07 5.2651e-30
6.6215e-07 4.0763e-30
6.626e-07 4.3016e-30
6.6304e-07 4.3625e-30
6.6348e-07 3.942e-30
6.6392e-07 3.5059e-30
6.6437e-07 3.8776e-30
6.6481e-07 3.4628e-30
6.6525e-07 2.8372e-30
6.657e-07 2.3494e-30
6.6614e-07 2.3083e-30
6.6659e-07 2.1199e-30
6.6703e-07 1.6971e-30
6.6748e-07 1.3688e-30
6.6792e-07 1.095e-30
6.6837e-07 1.0085e-30
6.6881e-07 8.8931e-31
6.6926e-07 6.6318e-31
6.6971e-07 4.6201e-31
6.7015e-07 4.1985e-31
6.706e-07 3.3685e-31
6.7105e-07 2.5506e-31
6.715e-07 1.9209e-31
6.7195e-07 1.7908e-31
6.7239e-07 1.8929e-31
6.7284e-07 1.571e-31
6.7329e-07 1.0608e-31
6.7374e-07 1.0097e-31
6.7419e-07 1.1825e-31
6.7464e-07 1.2461e-31
6.7509e-07 1.1221e-31
6.7554e-07 1.2697e-31
6.7599e-07 1.7277e-31
6.7644e-07 2.2363e-31
6.769e-07 2.6714e-31
6.7735e-07 3.0114e-31
6.778e-07 3.4761e-31
6.7825e-07 4.9321e-31
6.787e-07 6.0945e-31
6.7916e-07 5.9712e-31
6.7961e-07 7.3194e-31
6.8006e-07 1.0185e-30
6.8052e-07 1.2561e-30
6.8097e-07 1.3409e-30
6.8143e-07 1.5195e-30
6.8188e-07 1.9688e-30
6.8234e-07 2.5269e-30
6.8279e-07 2.7702e-30
6.8325e-07 2.5243e-30
6.837e-07 2.7752e-30
6.8416e-07 3.5531e-30
6.8462e-07 3.7859e-30
6.8507e-07 3.2701e-30
6.8553e-07 3.3032e-30
6.8599e-07 3.8409e-30
6.8645e-07 4.9833e-30
6.869e-07 5.9253e-30
6.8736e-07 5.0066e-30
6.8782e-07 3.5811e-30
6.8828e-07 2.7191e-30
6.8874e-07 3.1072e-30
6.892e-07 3.7198e-30
6.8966e-07 4.61e-30
6.9012e-07 6.7697e-30
6.9058e-07 9.7276e-30
6.9104e-07 1.4067e-29
6.915e-07 2.1469e-29
6.9196e-07 3.925e-29
6.9243e-07 6.877e-29
6.9289e-07 1.0879e-28
6.9335e-07 1.3887e-28
6.9381e-07 1.6678e-28
6.9428e-07 1.9178e-28
6.9474e-07 1.7461e-28
6.952e-07 1.5376e-28
6.9567e-07 1.4394e-28
6.9613e-07 1.2631e-28
6.966e-07 8.0399e-29
6.9706e-07 4.4727e-29
6.9753e-07 3.5725e-29
6.9799e-07 4.6928e-29
6.9846e-07 7.4392e-29
6.9892e-07 1.1237e-28
6.9939e-07 1.2888e-28
6.9986e-07 1.1636e-28
7.0032e-07 1.1821e-28
7.0079e-07 1.1655e-28
7.0126e-07 1.102e-28
7.0173e-07 1.1202e-28
7.022e-07 1.1599e-28
7.0267e-07 1.1258e-28
7.0313e-07 9.1898e-29
7.036e-07 7.0901e-29
7.0407e-07 7.4039e-29
7.0454e-07 6.8464e-29
7.0501e-07 6.8712e-29
7.0548e-07 7.7836e-29
7.0595e-07 6.9631e-29
7.0643e-07 6.1501e-29
7.069e-07 5.4853e-29
7.0737e-07 5.0122e-29
7.0784e-07 4.9791e-29
7.0831e-07 4.7048e-29
7.0879e-07 4.043e-29
7.0926e-07 3.9772e-29
7.0973e-07 3.967e-29
7.1021e-07 3.9624e-29
7.1068e-07 3.7833e-29
7.1115e-07 3.356e-29
7.1163e-07 2.9467e-29
7.121e-07 2.9875e-29
7.1258e-07 3.1305e-29
7.1306e-07 3.5532e-29
7.1353e-07 3.7362e-29
7.1401e-07 3.9087e-29
7.1448e-07 4.9438e-29
7.1496e-07 6.1054e-29
7.1544e-07 7.1466e-29
7.1592e-07 9.204e-29
7.1639e-07 1.7739e-28
7.1687e-07 3.2205e-28
7.1735e-07 4.9315e-28
7.1783e-07 5.4428e-28
7.1831e-07 5.8364e-28
7.1879e-07 6.0084e-28
7.1927e-07 6.0232e-28
7.1975e-07 5.9673e-28
7.2023e-07 5.8445e-28
7.2071e-07 4.7765e-28
7.2119e-07 3.0019e-28
7.2167e-07 1.8055e-28
7.2215e-07 1.5872e-28
7.2263e-07 1.8942e-28
7.2312e-07 3.0529e-28
7.236e-07 4.3242e-28
7.2408e-07 4.778e-28
7.2457e-07 4.7367e-28
7.2505e-07 4.4773e-28
7.2553e-07 4.3544e-28
7.2602e-07 4.0253e-28
7.265e-07 3.8725e-28
7.2699e-07 3.898e-28
7.2747e-07 4.2598e-28
7.2796e-07 4.1595e-28
7.2844e-07 3.4561e-28
7.2893e-07 3.4104e-28
7.2942e-07 3.811e-28
7.299e-07 3.595e-28
7.3039e-07 3.5216e-28
7.3088e-07 3.6036e-28
7.3137e-07 3.2312e-28
7.3185e-07 2.7862e-28
7.3234e-07 2.139e-28
7.3283e-07 1.6133e-28
7.3332e-07 1.5258e-28
7.3381e-07 1.2189e-28
7.343e-07 9.5875e-29
7.3479e-07 1.0663e-28
7.3528e-07 1.1398e-28
7.3577e-07 1.0699e-28
7.3626e-07 1.1601e-28
7.3675e-07 1.1309e-28
7.3724e-07 9.7231e-29
7.3774e-07 7.0388e-29
7.3823e-07 6.9334e-29
7.3872e-07 6.7318e-29
7.3921e-07 6.195e-29
7.3971e-07 5.6229e-29
7.402e-07 4.0324e-29
7.407e-07 3.0303e-29
7.4119e-07 2.8845e-29
7.4169e-07 2.3887e-29
7.4218e-07 2.1353e-29
7.4268e-07 1.8439e-29
7.4317e-07 1.299e-29
7.4367e-07 8.9736e-30
7.4416e-07 8.8077e-30
7.4466e-07 7.2281e-30
7.4516e-07 5.7665e-30
7.4565e-07 5.489e-30
7.4615e-07 4.4006e-30
7.4665e-07 3.7258e-30
7.4715e-07 3.3376e-30
7.4765e-07 2.9095e-30
7.4815e-07 2.5496e-30
7.4865e-07 2.0823e-30
7.4915e-07 1.8496e-30
7.4965e-07 1.7999e-30
7.5015e-07 1.8589e-30
7.5065e-07 1.8816e-30
7.5115e-07 1.5877e-30
7.5165e-07 1.3294e-30
7.5215e-07 1.0954e-30
7.5265e-07 8.4912e-31
7.5315e-07 6.6851e-31
7.5366e-07 7.0074e-31
7.5416e-07 7.1883e-31
7.5466e-07 6.1272e-31
7.5517e-07 5.4779e-31
7.5567e-07 5.2848e-31
7.5618e-07 4.5831e-31
7.5668e-07 3.6899e-31
7.5719e-07 4.3158e-31
7.5769e-07 5.9089e-31
7.582e-07 6.9772e-31
7.587e-07 6.2879e-31
7.5921e-07 4.7582e-31
7.5972e-07 3.965e-31
7.6022e-07 3.3922e-31
7.6073e-07 3.1019e-31
7.6124e-07 3.2439e-31
7.6175e-07 2.7591e-31
7.6225e-07 2.0558e-31
7.6276e-07 1.38e-31
7.6327e-07 1.3253e-31
7.6378e-07 1.3555e-31
7.6429e-07 1.1112e-31
7.648e-07 7.8168e-32
7.6531e-07 6.1377e-32
7.6582e-07 5.7436e-32
7.6633e-07 5.2037e-32
7.6685e-07 4.1912e-32
7.6736e-07 3.3677e-32
7.6787e-07 3.1107e-32
7.6838e-07 3.2063e-32
7.689e-07 3.7397e-32
7.6941e-07 4.6213e-32
7.6992e-07 5.867e-32
7.7044e-07 6.1858e-32
7.7095e-07 7.6615e-32
7.7146e-07 1.1877e-31
7.7198e-07 1.3598e-31
7.7249e-07 1.6281e-31
7.7301e-07 2.0586e-31
7.7353e-07 1.99e-31
7.7404e-07 2.2911e-31
7.7456e-07 2.67e-31
7.7508e-07 2.9017e-31
7.7559e-07 3.6147e-31
7.7611e-07 3.5213e-31
7.7663e-07 2.8327e-31
7.7715e-07 3.424e-31
7.7767e-07 4.5049e-31
7.7819e-07 4.7748e-31
7.787e-07 5.8094e-31
7.7922e-07 8.3357e-31
7.7974e-07 9.3868e-31
7.8026e-07 9.8853e-31
7.8079e-07 1.0569e-30
7.8131e-07 1.1505e-30
7.8183e-07 1.512e-30
7.8235e-07 1.9076e-30
7.8287e-07 2.3669e-30
7.8339e-07 3.3639e-30
7.8392e-07 5.2713e-30
7.8444e-07 7.0944e-30
7.8496e-07 8.5822e-30
7.8549e-07 9.8933e-30
7.8601e-07 1.5037e-29
7.8654e-07 2.561e-29
7.8706e-07 3.517e-29
7.8759e-07 4.0173e-29
7.8811e-07 4.1128e-29
7.8864e-07 5.3423e-29
7.8917e-07 6.9705e-29
7.8969e-07 8.079e-29
7.9022e-07 7.6311e-29
7.9075e-07 7.0651e-29
7.9127e-07 6.4382e-29
7.918e-07 5.77e-29
7.9233e-07 6.097e-29
7.9286e-07 5.9375e-29
7.9339e-07 3.8484e-29
7.9392e-07 2.2457e-29
7.9445e-07 1.7709e-29
7.9498e-07 2.7657e-29
7.9551e-07 4.6346e-29
7.9604e-07 7.9003e-29
7.9657e-07 9.0748e-29
7.971e-07 6.9903e-29
7.9764e-07 4.8514e-29
7.9817e-07 4.4824e-29
7.987e-07 4.4995e-29
7.9923e-07 4.6638e-29
7.9977e-07 5.6849e-29
8.003e-07 7.1278e-29
8.0083e-07 7.8431e-29
8.0137e-07 7.9704e-29
8.019e-07 7.2962e-29
8.0244e-07 7.647e-29
8.0297e-07 7.9256e-29
8.0351e-07 7.4059e-29
8.0405e-07 7.2157e-29
8.0458e-07 6.1823e-29
8.0512e-07 4.6989e-29
8.0566e-07 3.5071e-29
8.062e-07 3.6585e-29
8.0673e-07 3.6337e-29
8.0727e-07 3.514e-29
8.0781e-07 3.7958e-29
8.0835e-07 4.5811e-29
8.0889e-07 5.4971e-29
8.0943e-07 6.5734e-29
8.0997e-07 7.5387e-29
8.1051e-07 8.7949e-29
8.1105e-07 1.1962e-28
8.1159e-07 1.3806e-28
8.1213e-07 1.5903e-28
8.1268e-07 2.1631e-28
8.1322e-07 2.9633e-28
8.1376e-07 3.7622e-28
8.1431e-07 4.2812e-28
8.1485e-07 4.7688e-28
8.1539e-07 5.2638e-28
8.1594e-07 5.6416e-28
8.1648e-07 6.2248e-28
8.1703e-07 5.8308e-28
8.1757e-07 5.3076e-28
8.1812e-07 5.2386e-28
8.1866e-07 4.6114e-28
8.1921e-07 4.267e-28
8.1976e-07 4.0291e-28
8.203e-07 3.0233e-28
8.2085e-07 1.8921e-28
8.214e-07 1.7196e-28
8.2195e-07 2.7138e-28
8.225e-07 5.3257e-28
8.2304e-07 7.9729e-28
8.2359e-07 6.4681e-28
8.2414e-07 3.5778e-28
8.2469e-07 2.3046e-28
8.2524e-07 1.89e-28
8.258e-07 2.2949e-28
8.2635e-07 2.385e-28
8.269e-07 2.1561e-28
8.2745e-07 3.089e-28
8.28e-07 3.8869e-28
8.2855e-07 3.6527e-28
8.2911e-07 3.5209e-28
8.2966e-07 3.2584e-28
8.3021e-07 2.9222e-28
8.3077e-07 2.7339e-28
8.3132e-07 2.5927e-28
8.3188e-07 2.8691e-28
8.3243e-07 2.7218e-28
8.3299e-07 2.2772e-28
8.3354e-07 2.2533e-28
8.341e-07 1.9046e-28
8.3466e-07 1.4261e-28
8.3522e-07 1.3066e-28
8.3577e-07 1.4005e-28
8.3633e-07 1.3282e-28
8.3689e-07 1.1202e-28
8.3745e-07 1.0543e-28
8.3801e-07 9.2231e-29
8.3857e-07 7.4917e-29
8.3913e-07 6.4091e-29
8.3969e-07 5.366e-29
8.4025e-07 5.3331e-29
8.4081e-07 5.7727e-29
8.4137e-07 5.6577e-29
8.4193e-07 4.6885e-29
8.4249e-07 3.1158e-29
8.4305e-07 2.9614e-29
8.4362e-07 3.4641e-29
8.4418e-07 3.2966e-29
8.4474e-07 2.2392e-29
8.4531e-07 1.6501e-29
8.4587e-07 1.4417e-29
8.4644e-07 1.3348e-29
8.47e-07 1.0555e-29
8.4757e-07 1.1506e-29
8.4813e-07 1.5074e-29
8.487e-07 1.5144e-29
8.4926e-07 1.4964e-29
8.4983e-07 1.4614e-29
8.504e-07 1.5722e-29
8.5097e-07 2.0231e-29
8.5153e-07 2.3304e-29
8.521e-07 2.1375e-29
8.5267e-07 1.6384e-29
8.5324e-07 1.3819e-29
8.5381e-07 1.615e-29
8.5438e-07 1.6442e-29
8.5495e-07 1.3144e-29
8.5552e-07 1.2015e-29
8.5609e-07 9.4021e-30
8.5666e-07 7.9095e-30
8.5723e-07 9.597e-30
8.5781e-07 8.4499e-30
8.5838e-07 5.7919e-30
8.5895e-07 5.5903e-30
8.5952e-07 5.2336e-30
8.601e-07 3.5859e-30
8.6067e-07 2.8408e-30
8.6125e-07 2.6191e-30
8.6182e-07 2.0866e-30
8.624e-07 1.9418e-30
8.6297e-07 1.806e-30
8.6355e-07 1.1723e-30
8.6412e-07 8.745e-31
8.647e-07 8.6445e-31
8.6528e-07 7.3225e-31
8.6586e-07 5.5421e-31
8.6643e-07 3.8297e-31
8.6701e-07 4.1515e-31
8.6759e-07 5.0552e-31
8.6817e-07 4.7933e-31
8.6875e-07 4.2464e-31
8.6933e-07 4.0438e-31
8.6991e-07 4.092e-31
8.7049e-07 4.8039e-31
8.7107e-07 5.7938e-31
8.7165e-07 5.0894e-31
8.7223e-07 4.033e-31
8.7282e-07 4.9517e-31
8.734e-07 8.3092e-31
8.7398e-07 1.1053e-30
8.7457e-07 1.2565e-30
8.7515e-07 1.3851e-30
8.7573e-07 1.7534e-30
8.7632e-07 2.0468e-30
8.769e-07 2.0757e-30
8.7749e-07 3.0566e-30
8.7807e-07 5.028e-30
8.7866e-07 5.6618e-30
8.7925e-07 4.4148e-30
8.7983e-07 4.6301e-30
8.8042e-07 6.2767e-30
8.8101e-07 7.6411e-30
8.816e-07 8.8311e-30
8.8218e-07 1.0606e-29
8.8277e-07 9.9341e-30
8.8336e-07 9.5639e-30
8.8395e-07 8.6937e-30
8.8454e-07 7.2082e-30
8.8513e-07 1.1292e-29
8.8572e-07 2.021e-29
8.8631e-07 2.1736e-29
8.8691e-07 1.8151e-29
8.875e-07 1.816e-29
8.8809e-07 2.303e-29
8.8868e-07 1.9315e-29
8.8928e-07 1.5559e-29
8.8987e-07 2.1099e-29
8.9046e-07 2.3304e-29
8.9106e-07 2.5234e-29
8.9165e-07 3.6264e-29
8.9225e-07 6.0626e-29
8.9284e-07 1.0537e-28
8.9344e-07 1.5003e-28
8.9404e-07 1.8932e-28
8.9463e-07 2.4695e-28
8.9523e-07 3.3921e-28
8.9583e-07 4.3433e-28
8.9642e-07 5.0969e-28
8.9702e-07 5.8271e-28
8.9762e-07 5.5828e-28
8.9822e-07 5.8282e-28
8.9882e-07 7.8015e-28
8.9942e-07 8.19e-28
9.0002e-07 6.8073e-28
9.0062e-07 6.6919e-28
9.0122e-07 6.5076e-28
9.0182e-07 6.0534e-28
9.0243e-07 5.5472e-28
9.0303e-07 4.5361e-28
9.0363e-07 3.0326e-28
9.0423e-07 2.2537e-28
9.0484e-07 2.326e-28
9.0544e-07 2.6106e-28
9.0605e-07 3.3589e-28
9.0665e-07 4.7292e-28
9.0726e-07 5.941e-28
9.0786e-07 6.4376e-28
9.0847e-07 6.548e-28
9.0907e-07 6.3813e-28
9.0968e-07 6.5189e-28
9.1029e-07 6.441e-28
9.1089e-07 6.0234e-28
9.115e-07 5.2524e-28
9.1211e-07 5.285e-28
9.1272e-07 6.2087e-28
9.1333e-07 7.9456e-28
9.1394e-07 7.5312e-28
9.1455e-07 6.0109e-28
9.1516e-07 6.9567e-28
9.1577e-07 7.7641e-28
9.1638e-07 6.3395e-28
9.1699e-07 6.1596e-28
9.176e-07 7.0523e-28
9.1822e-07 6.4643e-28
9.1883e-07 4.8199e-28
9.1944e-07 3.8886e-28
9.2006e-07 3.2853e-28
9.2067e-07 2.8478e-28
9.2129e-07 3.4803e-28
9.219e-07 3.4837e-28
9.2252e-07 3.2563e-28
9.2313e-07 3.3333e-28
9.2375e-07 3.9123e-28
9.2436e-07 4.3651e-28
9.2498e-07 4.2338e-28
9.256e-07 3.7622e-28
9.2622e-07 3.7696e-28
9.2683e-07 4.0358e-28
9.2745e-07 5.2092e-28
9.2807e-07 7.9907e-28
9.2869e-07 1.0332e-27
9.2931e-07 1.1726e-27
9.2993e-07 1.3959e-27
9.3055e-07 1.6104e-27
9.3117e-07 1.846e-27
9.3179e-07 2.2402e-27
9.3242e-07 2.7263e-27
9.3304e-07 2.8468e-27
9.3366e-07 3.2212e-27
9.3429e-07 3.4268e-27
9.3491e-07 3.0163e-27
9.3553e-07 2.638e-27
9.3616e-07 2.6837e-27
9.3678e-07 2.9347e-27
9.3741e-07 2.9628e-27
9.3803e-07 2.7511e-27
9.3866e-07 2.1147e-27
9.3929e-07 1.4376e-27
9.3991e-07 1.2466e-27
9.4054e-07 1.4376e-27
9.4117e-07 1.5349e-27
9.418e-07 1.6334e-27
9.4242e-07 1.7375e-27
9.4305e-07 1.9708e-27
9.4368e-07 2.1174e-27
9.4431e-07 2.3523e-27
9.4494e-07 2.0831e-27
9.4557e-07 2.1588e-27
9.462e-07 2.2084e-27
9.4684e-07 2.0489e-27
9.4747e-07 1.973e-27
9.481e-07 1.9259e-27
9.4873e-07 1.7904e-27
9.4937e-07 1.8538e-27
9.5e-07 2.1486e-27
