2.8e-07 0
2.8019e-07 0
2.8037e-07 0
2.8056e-07 0
2.8075e-07 0
2.8094e-07 0
2.8112e-07 0
2.8131e-07 0
2.815e-07 0
2.8169e-07 0
2.8187e-07 0
2.8206e-07 0
2.8225e-07 0
2.8244e-07 0
2.8263e-07 0
2.8282e-07 0
2.8301e-07 0
2.8319e-07 0
2.8338e-07 0
2.8357e-07 0
2.8376e-07 0
2.8395e-07 0
2.8414e-07 0
2.8433e-07 0
2.8452e-07 0
2.8471e-07 0
2.849e-07 0
2.8509e-07 0
2.8528e-07 0
2.8547e-07 0
2.8566e-07 0
2.8585e-07 0
2.8604e-07 0
2.8623e-07 0
2.8642e-07 0
2.8662e-07 0
2.8681e-07 0
2.87e-07 0
2.8719e-07 0
2.8738e-07 0
2.8757e-07 0
2.8777e-07 0
2.8796e-07 0
2.8815e-07 0
2.8834e-07 0
2.8853e-07 0
2.8873e-07 0
2.8892e-07 0
2.8911e-07 0
2.8931e-07 0
2.895e-07 0
2.8969e-07 0
2.8989e-07 0
2.9008e-07 0
2.9027e-07 0
2.9047e-07 0
2.9066e-07 0
2.9085e-07 0
2.9105e-07 0
2.9124e-07 0
2.9144e-07 0
2.9163e-07 0
2.9183e-07 0
2.9202e-07 0
2.9222e-07 0
2.9241e-07 0
2.9261e-07 0
2.928e-07 0
2.93e-07 0
2.9319e-07 0
2.9339e-07 0
2.9358e-07 0
2.9378e-07 0
2.9398e-07 0
2.9417e-07 0
2.9437e-07 0
2.9456e-07 0
2.9476e-07 0
2.9496e-07 0
2.9515e-07 0
2.9535e-07 0
2.9555e-07 0
2.9575e-07 0
2.9594e-07 0
2.9614e-07 0
2.9634e-07 0
2.9654e-07 0
2.9673e-07 0
2.9693e-07 0
2.9713e-07 0
2.9733e-07 0
2.9753e-07 0
2.9773e-07 0
2.9792e-07 0
2.9812e-07 0
2.9832e-07 0
2.9852e-07 0
2.9872e-07 0
2.9892e-07 0
2.9912e-07 0
2.9932e-07 0
2.9952e-07 0
2.9972e-07 0
2.9992e-07 0
3.0012e-07 0
3.0032e-07 0
3.0052e-07 0
3.0072e-07 0
3.0092e-07 0
3.0112e-07 0
3.0132e-07 0
3.0152e-07 0
3.0173e-07 0
3.0193e-07 0
3.0213e-07 0
3.0233e-07 0
3.0253e-07 0
3.0273e-07 0
3.0294e-07 0
3.0314e-07 0
3.0334e-07 0
3.0354e-07 0
3.0375e-07 0
3.0395e-07 0
3.0415e-07 0
3.0435e-07 0
3.0456e-07 0
3.0476e-07 0
3.0496e-07 0
3.0517e-07 0
3.0537e-07 0
3.0557e-07 0
3.0578e-07 0
3.0598e-07 0
3.0619e-07 0
3.0639e-07 0
3.066e-07 0
3.068e-07 0
3.0701e-07 0
3.0721e-07 0
3.0742e-07 0
3.0762e-07 0
3.0783e-07 0
3.0803e-07 0
3.0824e-07 0
3.0844e-07 0
3.0865e-07 0
3.0885e-07 0
3.0906e-07 0
3.0927e-07 0
3.0947e-07 0
3.0968e-07 0
3.0989e-07 0
3.1009e-07 0
3.103e-07 0
3.1051e-07 0
3.1071e-07 0
3.1092e-07 0
3.1113e-07 0
3.1134e-07 0
3.1155e-07 0
3.1175e-07 0
3.1196e-07 0
3.1217e-07 0
3.1238e-07 0
3.1259e-07 0
3.1279e-07 0
3.13e-07 0
3.1321e-07 0
3.1342e-07 0
3.1363e-07 0
3.1384e-07 0
3.1405e-07 0
3.1426e-07 0
3.1447e-07 0
3.1468e-07 0
3.1489e-07 0
3.151e-07 0
3.1531e-07 0
3.1552e-07 0
3.1573e-07 0
3.1594e-07 0
3.1615e-07 0
3.1636e-07 0
3.1657e-07 0
3.1679e-07 0
3.17e-07 0
3.1721e-07 0
3.1742e-07 0
3.1763e-07 0
3.1784e-07 0
3.1806e-07 0
3.1827e-07 0
3.1848e-07 0
3.1869e-07 0
3.1891e-07 0
3.1912e-07 0
3.1933e-07 0
3.1955e-07 0
3.1976e-07 0
3.1997e-07 0
3.2019e-07 0
3.204e-07 0
3.2061e-07 0
3.2083e-07 0
3.2104e-07 0
3.2126e-07 0
3.2147e-07 0
3.2168e-07 0
3.219e-07 0
3.2211e-07 0
3.2233e-07 0
3.2254e-07 0
3.2276e-07 0
3.2297e-07 0
3.2319e-07 0
3.2341e-07 0
3.2362e-07 0
3.2384e-07 0
3.2405e-07 0
3.2427e-07 0
3.2449e-07 0
3.247e-07 0
3.2492e-07 0
3.2514e-07 0
3.2535e-07 0
3.2557e-07 0
3.2579e-07 0
3.2601e-07 0
3.2622e-07 0
3.2644e-07 0
3.2666e-07 0
3.2688e-07 0
3.271e-07 0
3.2731e-07 0
3.2753e-07 0
3.2775e-07 0
3.2797e-07 0
3.2819e-07 0
3.2841e-07 0
3.2863e-07 0
3.2885e-07 0
3.2907e-07 0
3.2928e-07 0
3.295e-07 0
3.2972e-07 0
3.2994e-07 0
3.3016e-07 0
3.3039e-07 0
3.3061e-07 0
3.3083e-07 0
3.3105e-07 0
3.3127e-07 0
3.3149e-07 0
3.3171e-07 0
3.3193e-07 0
3.3215e-07 0
3.3238e-07 0
3.326e-07 0
3.3282e-07 0
3.3304e-07 0
3.3326e-07 0
3.3349e-07 0
3.3371e-07 0
3.3393e-07 0
3.3415e-07 0
3.3438e-07 0
3.346e-07 0
3.3482e-07 0
3.3505e-07 0
3.3527e-07 0
3.3549e-07 0
3.3572e-07 0
3.3594e-07 0
3.3617e-07 0
3.3639e-07 0
3.3662e-07 0
3.3684e-07 0
3.3706e-07 0
3.3729e-07 0
3.3752e-07 0
3.3774e-07 0
3.3797e-07 0
3.3819e-07 0
3.3842e-07 0
3.3864e-07 0
3.3887e-07 0
3.391e-07 0
3.3932e-07 0
3.3955e-07 0
3.3977e-07 0
3.4e-07 0
3.4023e-07 0
3.4046e-07 0
3.4068e-07 0
3.4091e-07 0
3.4114e-07 0
3.4137e-07 0
3.4159e-07 0
3.4182e-07 0
3.4205e-07 0
3.4228e-07 0
3.4251e-07 0
3.4273e-07 0
3.4296e-07 0
3.4319e-07 0
3.4342e-07 0
3.4365e-07 0
3.4388e-07 0
3.4411e-07 0
3.4434e-07 0
3.4457e-07 0
3.448e-07 0
3.4503e-07 0
3.4526e-07 0
3.4549e-07 0
3.4572e-07 0
3.4595e-07 0
3.4618e-07 0
3.4641e-07 0
3.4664e-07 0
3.4688e-07 0
3.4711e-07 0
3.4734e-07 0
3.4757e-07 0
3.478e-07 0
3.4803e-07 0
3.4827e-07 0
3.485e-07 0
3.4873e-07 0
3.4896e-07 0
3.492e-07 0
3.4943e-07 0
3.4966e-07 0
3.499e-07 0
3.5013e-07 0
3.5036e-07 0
3.506e-07 0
3.5083e-07 0
3.5107e-07 0
3.513e-07 0
3.5154e-07 0
3.5177e-07 0
3.52e-07 0
3.5224e-07 0
3.5247e-07 0
3.5271e-07 0
3.5295e-07 0
3.5318e-07 0
3.5342e-07 0
3.5365e-07 0
3.5389e-07 0
3.5412e-07 0
3.5436e-07 0
3.546e-07 0
3.5483e-07 0
3.5507e-07 0
3.5531e-07 0
3.5555e-07 0
3.5578e-07 0
3.5602e-07 0
3.5626e-07 0
3.565e-07 0
3.5673e-07 0
3.5697e-07 0
3.5721e-07 0
3.5745e-07 0
3.5769e-07 0
3.5793e-07 0
3.5816e-07 0
3.584e-07 0
3.5864e-07 0
3.5888e-07 0
3.5912e-07 0
3.5936e-07 0
3.596e-07 0
3.5984e-07 0
3.6008e-07 0
3.6032e-07 0
3.6056e-07 0
3.608e-07 0
3.6104e-07 0
3.6128e-07 0
3.6153e-07 0
3.6177e-07 0
3.6201e-07 0
3.6225e-07 0
3.6249e-07 0
3.6273e-07 0
3.6298e-07 0
3.6322e-07 0
3.6346e-07 0
3.637e-07 0
3.6395e-07 0
3.6419e-07 0
3.6443e-07 0
3.6468e-07 0
3.6492e-07 0
3.6516e-07 0
3.6541e-07 0
3.6565e-07 0
3.6589e-07 0
3.6614e-07 0
3.6638e-07 0
3.6663e-07 0
3.6687e-07 0
3.6712e-07 0
3.6736e-07 0
3.6761e-07 0
3.6785e-07 0
3.681e-07 0
3.6834e-07 0
3.6859e-07 0
3.6884e-07 0
3.6908e-07 0
3.6933e-07 0
3.6957e-07 0
3.6982e-07 0
3.7007e-07 0
3.7031e-07 0
3.7056e-07 0
3.7081e-07 0
3.7106e-07 0
3.713e-07 0
3.7155e-07 0
3.718e-07 0
3.7205e-07 0
3.723e-07 0
3.7255e-07 0
3.7279e-07 0
3.7304e-07 0
3.7329e-07 0
3.7354e-07 0
3.7379e-07 0
3.7404e-07 0
3.7429e-07 0
3.7454e-07 0
3.7479e-07 0
3.7504e-07 0
3.7529e-07 0
3.7554e-07 0
3.7579e-07 0
3.7604e-07 0
3.7629e-07 0
3.7654e-07 0
3.7679e-07 0
3.7705e-07 0
3.773e-07 0
3.7755e-07 0
3.778e-07 0
3.7805e-07 0
3.7831e-07 0
3.7856e-07 0
3.7881e-07 0
3.7906e-07 0
3.7932e-07 0
3.7957e-07 0
3.7982e-07 0
3.8008e-07 0
3.8033e-07 0
3.8058e-07 0
3.8084e-07 0
3.8109e-07 0
3.8135e-07 0
3.816e-07 0
3.8186e-07 0
3.8211e-07 0
3.8237e-07 0
3.8262e-07 0
3.8288e-07 0
3.8313e-07 0
3.8339e-07 0
3.8364e-07 0
3.839e-07 0
3.8416e-07 0
3.8441e-07 0
3.8467e-07 0
3.8493e-07 0
3.8518e-07 1.1418e-40
3.8544e-07 4.2454e-39
3.857e-07 3.0993e-38
3.8595e-07 1.1935e-37
3.8621e-07 3.029e-37
3.8647e-07 6.3167e-37
3.8673e-07 1.2161e-36
3.8699e-07 2.1834e-36
3.8724e-07 3.7095e-36
3.875e-07 5.9585e-36
3.8776e-07 9.3138e-36
3.8802e-07 1.4729e-35
3.8828e-07 6.1684e-35
3.8854e-07 7.3635e-34
3.888e-07 6.1196e-33
3.8906e-07 7.4355e-33
3.8932e-07 1.7818e-32
3.8958e-07 2.8617e-32
3.8984e-07 4.66e-32
3.901e-07 6.8928e-32
3.9036e-07 8.2907e-32
3.9062e-07 9.7866e-32
3.9088e-07 1.067e-31
3.9114e-07 1.0065e-31
3.914e-07 8.1565e-32
3.9166e-07 6.3908e-32
3.9192e-07 4.5971e-32
3.9218e-07 5.3286e-32
3.9245e-07 6.2229e-32
3.9271e-07 7.2346e-32
3.9297e-07 7.8274e-32
3.9323e-07 6.5883e-32
3.935e-07 4.4549e-32
3.9376e-07 2.4387e-32
3.9402e-07 1.2873e-32
3.9428e-07 1.018e-32
3.9455e-07 1.6512e-32
3.9481e-07 3.1896e-32
3.9507e-07 4.2865e-32
3.9534e-07 4.7556e-32
3.956e-07 5.6125e-32
3.9587e-07 7.8273e-32
3.9613e-07 1.5447e-31
3.9639e-07 2.813e-31
3.9666e-07 3.7135e-31
3.9692e-07 5.2491e-31
3.9719e-07 8.275e-31
3.9745e-07 8.7864e-31
3.9772e-07 5.7991e-31
3.9798e-07 3.8926e-31
3.9825e-07 3.9121e-31
3.9852e-07 4.3688e-31
3.9878e-07 4.5556e-31
3.9905e-07 4.654e-31
3.9931e-07 4.5502e-31
3.9958e-07 4.6572e-31
3.9985e-07 4.4364e-31
4.0011e-07 3.8451e-31
4.0038e-07 3.3333e-31
4.0065e-07 2.8241e-31
4.0092e-07 2.3382e-31
4.0118e-07 1.9048e-31
4.0145e-07 1.6761e-31
4.0172e-07 1.5165e-31
4.0199e-07 1.5026e-31
4.0226e-07 1.2713e-31
4.0252e-07 9.4698e-32
4.0279e-07 8.6714e-32
4.0306e-07 8.2368e-32
4.0333e-07 6.5833e-32
4.036e-07 5.1283e-32
4.0387e-07 4.2251e-32
4.0414e-07 5.0074e-32
4.0441e-07 5.394e-32
4.0468e-07 4.1065e-32
4.0495e-07 2.966e-32
4.0522e-07 2.4827e-32
4.0549e-07 2.1613e-32
4.0576e-07 1.4918e-32
4.0603e-07 1.1374e-32
4.063e-07 1.0672e-32
4.0657e-07 8.9138e-33
4.0684e-07 5.4235e-33
4.0712e-07 3.2902e-33
4.0739e-07 4.7822e-33
4.0766e-07 3.9834e-33
4.0793e-07 3.8755e-33
4.082e-07 5.1195e-33
4.0848e-07 9.6525e-33
4.0875e-07 7.6961e-33
4.0902e-07 6.2936e-33
4.0929e-07 2.0284e-33
4.0957e-07 1.3615e-34
4.0984e-07 8.3377e-36
4.1011e-07 7.4076e-36
4.1039e-07 1.3996e-35
4.1066e-07 5.5148e-35
4.1094e-07 9.5374e-34
4.1121e-07 3.5921e-33
4.1149e-07 2.4617e-33
4.1176e-07 2.3336e-33
4.1203e-07 8.7792e-33
4.1231e-07 1.8152e-32
4.1258e-07 2.8845e-32
4.1286e-07 3.6913e-32
4.1314e-07 3.6841e-32
4.1341e-07 3.4677e-32
4.1369e-07 3.1796e-32
4.1396e-07 3.2441e-32
4.1424e-07 5.2354e-32
4.1452e-07 8.5119e-32
4.1479e-07 1.3107e-31
4.1507e-07 1.8901e-31
4.1535e-07 2.3623e-31
4.1562e-07 2.5569e-31
4.159e-07 3.1011e-31
4.1618e-07 4.0483e-31
4.1646e-07 5.4771e-31
4.1673e-07 6.1255e-31
4.1701e-07 4.4099e-31
4.1729e-07 2.4923e-31
4.1757e-07 2.0732e-31
4.1785e-07 2.3955e-31
4.1813e-07 2.5048e-31
4.1841e-07 2.4275e-31
4.1869e-07 2.2884e-31
4.1897e-07 2.1312e-31
4.1924e-07 1.9951e-31
4.1952e-07 1.7925e-31
4.198e-07 1.401e-31
4.2008e-07 9.8135e-32
4.2037e-07 8.2236e-32
4.2065e-07 6.8608e-32
4.2093e-07 5.2988e-32
4.2121e-07 4.6212e-32
4.2149e-07 3.5655e-32
4.2177e-07 2.8328e-32
4.2205e-07 2.5391e-32
4.2233e-07 1.8424e-32
4.2262e-07 1.4071e-32
4.229e-07 9.509e-33
4.2318e-07 6.8341e-33
4.2346e-07 4.6226e-33
4.2374e-07 3.5311e-33
4.2403e-07 3.1368e-33
4.2431e-07 3.463e-33
4.2459e-07 2.1221e-32
4.2488e-07 4.2998e-32
4.2516e-07 5.9306e-32
4.2544e-07 6.3628e-32
4.2573e-07 9.0708e-32
4.2601e-07 1.4126e-31
4.263e-07 1.5221e-31
4.2658e-07 1.0262e-31
4.2687e-07 6.1042e-32
4.2715e-07 6.2606e-32
4.2744e-07 8.2458e-32
4.2772e-07 8.2132e-32
4.2801e-07 6.6358e-32
4.2829e-07 6.2361e-32
4.2858e-07 6.6519e-32
4.2886e-07 7.4143e-32
4.2915e-07 7.1082e-32
4.2944e-07 5.7227e-32
4.2972e-07 4.2377e-32
4.3001e-07 3.6804e-32
4.303e-07 3.3274e-32
4.3058e-07 2.2341e-32
4.3087e-07 1.0956e-32
4.3116e-07 6.3913e-33
4.3145e-07 6.638e-33
4.3174e-07 5.7588e-33
4.3202e-07 4.2219e-33
4.3231e-07 3.7796e-33
4.326e-07 2.1871e-33
4.3289e-07 1.5495e-33
4.3318e-07 1.087e-33
4.3347e-07 2.1371e-34
4.3376e-07 4.8944e-36
4.3405e-07 3.7162e-36
4.3434e-07 3.9659e-36
4.3463e-07 1.3221e-35
4.3492e-07 1.4316e-34
4.3521e-07 1.0725e-33
4.355e-07 4.3377e-33
4.3579e-07 6.3522e-33
4.3608e-07 6.3097e-33
4.3637e-07 3.0425e-33
4.3666e-07 1.6189e-33
4.3695e-07 6.3929e-35
4.3724e-07 6.3863e-34
4.3754e-07 5.694e-33
4.3783e-07 1.3107e-32
4.3812e-07 1.7319e-32
4.3841e-07 2.9365e-32
4.387e-07 6.1234e-32
4.39e-07 1.0603e-31
4.3929e-07 1.3858e-31
4.3958e-07 1.4792e-31
4.3988e-07 1.8852e-31
4.4017e-07 2.4523e-31
4.4046e-07 2.8047e-31
4.4076e-07 3.3312e-31
4.4105e-07 5.0774e-31
4.4135e-07 8.4734e-31
4.4164e-07 1.1204e-30
4.4194e-07 1.2059e-30
4.4223e-07 1.7026e-30
4.4253e-07 2.9346e-30
4.4282e-07 3.7185e-30
4.4312e-07 3.0489e-30
4.4341e-07 1.8599e-30
4.4371e-07 1.2661e-30
4.44e-07 1.2665e-30
4.443e-07 1.5075e-30
4.446e-07 1.7233e-30
4.4489e-07 1.923e-30
4.4519e-07 1.8869e-30
4.4549e-07 1.8496e-30
4.4579e-07 1.8237e-30
4.4608e-07 1.5611e-30
4.4638e-07 1.371e-30
4.4668e-07 1.1381e-30
4.4698e-07 9.7796e-31
4.4728e-07 9.0591e-31
4.4757e-07 7.6235e-31
4.4787e-07 6.1492e-31
4.4817e-07 4.6861e-31
4.4847e-07 4.1027e-31
4.4877e-07 3.4854e-31
4.4907e-07 2.7495e-31
4.4937e-07 2.2013e-31
4.4967e-07 1.5076e-31
4.4997e-07 1.1237e-31
4.5027e-07 9.8346e-32
4.5057e-07 7.9458e-32
4.5087e-07 6.5853e-32
4.5117e-07 4.6849e-32
4.5147e-07 2.4612e-32
4.5177e-07 2.0434e-32
4.5208e-07 2.2454e-32
4.5238e-07 3.2024e-32
4.5268e-07 5.6117e-32
4.5298e-07 7.8628e-32
4.5328e-07 7.2355e-32
4.5359e-07 4.0632e-32
4.5389e-07 2.7304e-32
4.5419e-07 4.2319e-32
4.545e-07 6.2831e-32
4.548e-07 6.5767e-32
4.551e-07 5.901e-32
4.5541e-07 5.5524e-32
4.5571e-07 6.18e-32
4.5601e-07 6.8838e-32
4.5632e-07 7.369e-32
4.5662e-07 9.2321e-32
4.5693e-07 9.9213e-32
4.5723e-07 6.5223e-32
4.5754e-07 3.8043e-32
4.5784e-07 4.0673e-32
4.5815e-07 5.2531e-32
4.5846e-07 5.2276e-32
4.5876e-07 4.6109e-32
4.5907e-07 4.1933e-32
4.5937e-07 3.3311e-32
4.5968e-07 2.7026e-32
4.5999e-07 3.063e-32
4.6029e-07 2.8557e-32
4.606e-07 1.4489e-32
4.6091e-07 1.0044e-32
4.6122e-07 9.4066e-33
4.6152e-07 5.0245e-33
4.6183e-07 2.3363e-33
4.6214e-07 1.8956e-33
4.6245e-07 5.8178e-33
4.6276e-07 5.3338e-33
4.6307e-07 2.1255e-33
4.6338e-07 2.642e-33
4.6368e-07 4.4262e-33
4.6399e-07 1.0835e-32
4.643e-07 8.1256e-33
4.6461e-07 9.3745e-33
4.6492e-07 9.2731e-33
4.6523e-07 1.1261e-32
4.6554e-07 2.6903e-32
4.6586e-07 6.0661e-32
4.6617e-07 1.2093e-31
4.6648e-07 2.199e-31
4.6679e-07 3.8357e-31
4.671e-07 5.5763e-31
4.6741e-07 6.1219e-31
4.6772e-07 5.3674e-31
4.6804e-07 4.5957e-31
4.6835e-07 5.3137e-31
4.6866e-07 7.3552e-31
4.6897e-07 8.5348e-31
4.6929e-07 1.0703e-30
4.696e-07 1.4821e-30
4.6991e-07 1.5221e-30
4.7023e-07 1.1748e-30
4.7054e-07 8.9706e-31
4.7086e-07 8.771e-31
4.7117e-07 9.2307e-31
4.7148e-07 7.7635e-31
4.718e-07 6.3852e-31
4.7211e-07 7.0366e-31
4.7243e-07 7.6337e-31
4.7274e-07 7.9095e-31
4.7306e-07 8.0402e-31
4.7338e-07 7.0264e-31
4.7369e-07 5.415e-31
4.7401e-07 4.5244e-31
4.7432e-07 4.4041e-31
4.7464e-07 3.9615e-31
4.7496e-07 2.89e-31
4.7527e-07 2.1835e-31
4.7559e-07 1.9001e-31
4.7591e-07 1.6944e-31
4.7623e-07 1.513e-31
4.7654e-07 1.2551e-31
4.7686e-07 1.0494e-31
4.7718e-07 8.1407e-32
4.775e-07 5.3197e-32
4.7782e-07 4.3083e-32
4.7814e-07 3.1696e-32
4.7846e-07 2.1614e-32
4.7878e-07 2.026e-32
4.7909e-07 1.0428e-32
4.7941e-07 3.2816e-33
4.7973e-07 7.807e-34
4.8005e-07 7.1286e-34
4.8038e-07 2.4455e-34
4.807e-07 1.7248e-34
4.8102e-07 9.2695e-34
4.8134e-07 3.4808e-33
4.8166e-07 5.6001e-33
4.8198e-07 1.1009e-32
4.823e-07 1.6418e-32
4.8262e-07 2.3818e-32
4.8295e-07 4.8632e-32
4.8327e-07 9.4308e-32
4.8359e-07 1.5848e-31
4.8391e-07 2.4797e-31
4.8424e-07 4.3099e-31
4.8456e-07 7.648e-31
4.8488e-07 1.1755e-30
4.8521e-07 1.3481e-30
4.8553e-07 1.2363e-30
4.8585e-07 9.7652e-31
4.8618e-07 7.152e-31
4.865e-07 6.7301e-31
4.8683e-07 8.278e-31
4.8715e-07 9.4535e-31
4.8748e-07 9.3994e-31
4.878e-07 8.825e-31
4.8813e-07 8.1196e-31
4.8846e-07 7.7717e-31
4.8878e-07 8.4327e-31
4.8911e-07 9.5625e-31
4.8943e-07 8.8809e-31
4.8976e-07 6.7445e-31
4.9009e-07 5.3195e-31
4.9041e-07 5.0839e-31
4.9074e-07 4.9753e-31
4.9107e-07 4.6653e-31
4.914e-07 4.0024e-31
4.9173e-07 3.2033e-31
4.9205e-07 2.8283e-31
4.9238e-07 2.6729e-31
4.9271e-07 2.3827e-31
4.9304e-07 1.8825e-31
4.9337e-07 1.3932e-31
4.937e-07 1.0387e-31
4.9403e-07 8.6016e-32
4.9436e-07 7.2308e-32
4.9469e-07 5.852e-32
4.9502e-07 4.327e-32
4.9535e-07 3.2575e-32
4.9568e-07 2.8366e-32
4.9601e-07 2.7106e-32
4.9634e-07 2.4263e-32
4.9667e-07 2.1352e-32
4.97e-07 3.3788e-32
4.9733e-07 5.3443e-32
4.9767e-07 8.1559e-32
4.98e-07 1.6029e-31
4.9833e-07 2.7809e-31
4.9866e-07 3.7912e-31
4.99e-07 4.7331e-31
4.9933e-07 6.0626e-31
4.9966e-07 7.4541e-31
5e-07 9.3272e-31
5.0033e-07 1.1318e-30
5.0066e-07 1.3461e-30
5.01e-07 1.693e-30
5.0133e-07 2.4721e-30
5.0167e-07 3.5519e-30
5.02e-07 4.1311e-30
5.0234e-07 4.1779e-30
5.0267e-07 5.2981e-30
5.0301e-07 7.564e-30
5.0334e-07 1.1699e-29
5.0368e-07 1.7243e-29
5.0402e-07 1.884e-29
5.0435e-07 1.6038e-29
5.0469e-07 1.0925e-29
5.0503e-07 7.0115e-30
5.0536e-07 6.9032e-30
5.057e-07 9.2956e-30
5.0604e-07 9.7644e-30
5.0637e-07 8.4417e-30
5.0671e-07 9.3553e-30
5.0705e-07 1.0342e-29
5.0739e-07 1.0558e-29
5.0773e-07 1.0109e-29
5.0807e-07 9.0368e-30
5.0841e-07 7.6928e-30
5.0875e-07 6.6465e-30
5.0909e-07 5.905e-30
5.0942e-07 5.6864e-30
5.0976e-07 5.1446e-30
5.1011e-07 4.0916e-30
5.1045e-07 3.5014e-30
5.1079e-07 2.5969e-30
5.1113e-07 2.4369e-30
5.1147e-07 1.9973e-30
5.1181e-07 1.6281e-30
5.1215e-07 1.4891e-30
5.1249e-07 1.2155e-30
5.1284e-07 9.8611e-31
5.1318e-07 7.3998e-31
5.1352e-07 5.5034e-31
5.1386e-07 4.0291e-31
5.1421e-07 3.1475e-31
5.1455e-07 2.5814e-31
5.1489e-07 2.3859e-31
5.1524e-07 2.1998e-31
5.1558e-07 1.8938e-31
5.1592e-07 1.6155e-31
5.1627e-07 1.4979e-31
5.1661e-07 1.4217e-31
5.1696e-07 1.2865e-31
5.173e-07 1.12e-31
5.1765e-07 1.0392e-31
5.1799e-07 9.5009e-32
5.1834e-07 8.7154e-32
5.1869e-07 7.8916e-32
5.1903e-07 8.0045e-32
5.1938e-07 7.6595e-32
5.1972e-07 6.525e-32
5.2007e-07 5.6557e-32
5.2042e-07 4.9756e-32
5.2077e-07 5.0714e-32
5.2111e-07 5.1189e-32
5.2146e-07 5.0952e-32
5.2181e-07 6.988e-32
5.2216e-07 8.7909e-32
5.2251e-07 1.107e-31
5.2285e-07 1.7757e-31
5.232e-07 3.6762e-31
5.2355e-07 6.8051e-31
5.239e-07 1.0899e-30
5.2425e-07 1.51e-30
5.246e-07 1.5511e-30
5.2495e-07 1.3479e-30
5.253e-07 1.0222e-30
5.2565e-07 6.0687e-31
5.26e-07 3.5601e-31
5.2635e-07 5.1349e-31
5.2671e-07 8.9391e-31
5.2706e-07 1.0898e-30
5.2741e-07 9.1265e-31
5.2776e-07 6.7406e-31
5.2811e-07 5.61e-31
5.2847e-07 6.0862e-31
5.2882e-07 7.328e-31
5.2917e-07 7.4349e-31
5.2953e-07 7.081e-31
5.2988e-07 7.1698e-31
5.3023e-07 7.3484e-31
5.3059e-07 7.3949e-31
5.3094e-07 6.3942e-31
5.3129e-07 5.2076e-31
5.3165e-07 4.6506e-31
5.32e-07 4.2301e-31
5.3236e-07 3.9265e-31
5.3271e-07 3.5882e-31
5.3307e-07 2.8136e-31
5.3343e-07 2.1533e-31
5.3378e-07 1.9697e-31
5.3414e-07 1.9103e-31
5.3449e-07 1.9935e-31
5.3485e-07 2.4325e-31
5.3521e-07 2.858e-31
5.3557e-07 3.0588e-31
5.3592e-07 3.3061e-31
5.3628e-07 4.0543e-31
5.3664e-07 4.5638e-31
5.37e-07 5.1295e-31
5.3736e-07 5.5218e-31
5.3771e-07 7.1089e-31
5.3807e-07 8.6609e-31
5.3843e-07 1.0079e-30
5.3879e-07 1.2399e-30
5.3915e-07 1.4972e-30
5.3951e-07 1.8843e-30
5.3987e-07 2.6899e-30
5.4023e-07 3.6112e-30
5.4059e-07 5.2102e-30
5.4095e-07 7.2459e-30
5.4131e-07 8.2714e-30
5.4167e-07 7.9333e-30
5.4204e-07 6.9363e-30
5.424e-07 5.9044e-30
5.4276e-07 4.8273e-30
5.4312e-07 4.7429e-30
5.4349e-07 6.2338e-30
5.4385e-07 6.5185e-30
5.4421e-07 5.1412e-30
5.4457e-07 4.7525e-30
5.4494e-07 4.8814e-30
5.453e-07 4.8864e-30
5.4567e-07 5.9263e-30
5.4603e-07 7.3041e-30
5.4639e-07 7.3496e-30
5.4676e-07 6.1404e-30
5.4712e-07 4.4751e-30
5.4749e-07 3.5802e-30
5.4785e-07 3.265e-30
5.4822e-07 2.8594e-30
5.4859e-07 2.2934e-30
5.4895e-07 2.2085e-30
5.4932e-07 2.2791e-30
5.4968e-07 2.3711e-30
5.5005e-07 2.0772e-30
5.5042e-07 1.6197e-30
5.5079e-07 1.3681e-30
5.5115e-07 1.2562e-30
5.5152e-07 1.0475e-30
5.5189e-07 7.5494e-31
5.5226e-07 5.9955e-31
5.5263e-07 5.2771e-31
5.53e-07 4.1894e-31
5.5336e-07 3.4183e-31
5.5373e-07 2.737e-31
5.541e-07 2.2019e-31
5.5447e-07 2.1887e-31
5.5484e-07 2.0311e-31
5.5521e-07 1.5629e-31
5.5558e-07 1.2045e-31
5.5596e-07 8.1863e-32
5.5633e-07 4.7456e-32
5.567e-07 3.1409e-32
5.5707e-07 4.7759e-32
5.5744e-07 7.8225e-32
5.5781e-07 1.0583e-31
5.5819e-07 1.3298e-31
5.5856e-07 1.7434e-31
5.5893e-07 2.0228e-31
5.593e-07 2.1901e-31
5.5968e-07 2.5244e-31
5.6005e-07 3.3623e-31
5.6042e-07 3.6633e-31
5.608e-07 3.9715e-31
5.6117e-07 4.035e-31
5.6155e-07 3.7608e-31
5.6192e-07 4.1592e-31
5.623e-07 4.863e-31
5.6267e-07 5.3975e-31
5.6305e-07 4.8093e-31
5.6342e-07 3.39e-31
5.638e-07 3.3806e-31
5.6418e-07 4.4691e-31
5.6455e-07 4.7479e-31
5.6493e-07 4.9099e-31
5.6531e-07 5.1274e-31
5.6568e-07 5.4566e-31
5.6606e-07 7.2701e-31
5.6644e-07 1.1294e-30
5.6682e-07 1.5523e-30
5.672e-07 2.2514e-30
5.6757e-07 3.6733e-30
5.6795e-07 6.3973e-30
5.6833e-07 1.0466e-29
5.6871e-07 1.4415e-29
5.6909e-07 1.6099e-29
5.6947e-07 1.4717e-29
5.6985e-07 1.3419e-29
5.7023e-07 1.087e-29
5.7061e-07 6.6815e-30
5.7099e-07 4.428e-30
5.7137e-07 5.2627e-30
5.7176e-07 7.8765e-30
5.7214e-07 1.0395e-29
5.7252e-07 1.0005e-29
5.729e-07 9.1085e-30
5.7328e-07 8.3971e-30
5.7367e-07 7.9326e-30
5.7405e-07 8.7706e-30
5.7443e-07 9.2443e-30
5.7482e-07 8.9484e-30
5.752e-07 7.2506e-30
5.7558e-07 6.9239e-30
5.7597e-07 6.6083e-30
5.7635e-07 5.9142e-30
5.7674e-07 5.5315e-30
5.7712e-07 5.9665e-30
5.7751e-07 5.7473e-30
5.7789e-07 4.5531e-30
5.7828e-07 3.4908e-30
5.7866e-07 2.9756e-30
5.7905e-07 2.6061e-30
5.7944e-07 2.5266e-30
5.7982e-07 2.2174e-30
5.8021e-07 1.9141e-30
5.806e-07 1.9753e-30
5.8098e-07 1.9336e-30
5.8137e-07 1.9476e-30
5.8176e-07 2.1041e-30
5.8215e-07 2.1592e-30
5.8254e-07 2.2069e-30
5.8293e-07 2.365e-30
5.8331e-07 2.6442e-30
5.837e-07 2.8389e-30
5.8409e-07 3.0657e-30
5.8448e-07 3.1828e-30
5.8487e-07 3.378e-30
5.8526e-07 3.6754e-30
5.8565e-07 4.4704e-30
5.8605e-07 6.2233e-30
5.8644e-07 8.2782e-30
5.8683e-07 1.0582e-29
5.8722e-07 1.5137e-29
5.8761e-07 2.2752e-29
5.88e-07 3.6126e-29
5.884e-07 5.5495e-29
5.8879e-07 7.0242e-29
5.8918e-07 7.7375e-29
5.8958e-07 7.415e-29
5.8997e-07 7.7382e-29
5.9036e-07 6.8552e-29
5.9076e-07 5.8019e-29
5.9115e-07 5.594e-29
5.9155e-07 6.0625e-29
5.9194e-07 7.0131e-29
5.9234e-07 7.2484e-29
5.9273e-07 5.6689e-29
5.9313e-07 4.0932e-29
5.9352e-07 3.499e-29
5.9392e-07 4.9848e-29
5.9431e-07 7.2638e-29
5.9471e-07 7.9737e-29
5.9511e-07 6.4779e-29
5.9551e-07 4.679e-29
5.959e-07 4.0565e-29
5.963e-07 3.4993e-29
5.967e-07 3.7693e-29
5.971e-07 4.1344e-29
5.975e-07 3.7177e-29
5.9789e-07 3.3675e-29
5.9829e-07 2.6341e-29
5.9869e-07 2.2514e-29
5.9909e-07 2.3059e-29
5.9949e-07 1.9846e-29
5.9989e-07 1.6265e-29
6.0029e-07 1.3423e-29
6.0069e-07 1.0306e-29
6.0109e-07 8.1466e-30
6.015e-07 7.6259e-30
6.019e-07 6.8681e-30
6.023e-07 4.886e-30
6.027e-07 3.9438e-30
6.031e-07 3.5428e-30
6.0351e-07 2.6415e-30
6.0391e-07 1.879e-30
6.0431e-07 1.6157e-30
6.0471e-07 1.3432e-30
6.0512e-07 1.0388e-30
6.0552e-07 9.2515e-31
6.0593e-07 8.1087e-31
6.0633e-07 5.9154e-31
6.0674e-07 4.2185e-31
6.0714e-07 3.65e-31
6.0755e-07 3.3916e-31
6.0795e-07 2.7909e-31
6.0836e-07 2.2471e-31
6.0876e-07 1.97e-31
6.0917e-07 1.6547e-31
6.0958e-07 1.3715e-31
6.0998e-07 1.21e-31
6.1039e-07 1.0509e-31
6.108e-07 8.6578e-32
6.112e-07 7.484e-32
6.1161e-07 6.4531e-32
6.1202e-07 5.9873e-32
6.1243e-07 6.0808e-32
6.1284e-07 4.8404e-32
6.1325e-07 3.768e-32
6.1366e-07 3.6559e-32
6.1407e-07 3.8576e-32
6.1448e-07 3.848e-32
6.1489e-07 4.7221e-32
6.153e-07 4.9278e-32
6.1571e-07 4.4767e-32
6.1612e-07 4.608e-32
6.1653e-07 5.4789e-32
6.1694e-07 5.9741e-32
6.1735e-07 6.4001e-32
6.1776e-07 7.2416e-32
6.1818e-07 9.0913e-32
6.1859e-07 1.0356e-31
6.19e-07 1.0187e-31
6.1942e-07 1.0691e-31
6.1983e-07 1.159e-31
6.2024e-07 1.1836e-31
6.2066e-07 1.2211e-31
6.2107e-07 1.2759e-31
6.2149e-07 1.3927e-31
6.219e-07 1.524e-31
6.2232e-07 1.7533e-31
6.2273e-07 1.9186e-31
6.2315e-07 2.2657e-31
6.2356e-07 2.7949e-31
6.2398e-07 3.3801e-31
6.2439e-07 4.8674e-31
6.2481e-07 8.248e-31
6.2523e-07 1.2176e-30
6.2565e-07 1.7966e-30
6.2606e-07 2.9579e-30
6.2648e-07 4.6107e-30
6.269e-07 6.7192e-30
6.2732e-07 8.9002e-30
6.2774e-07 1.126e-29
6.2816e-07 1.22e-29
6.2857e-07 1.1431e-29
6.2899e-07 1.0005e-29
6.2941e-07 8.8233e-30
6.2983e-07 6.8819e-30
6.3025e-07 4.1832e-30
6.3068e-07 2.3587e-30
6.311e-07 3.3379e-30
6.3152e-07 6.507e-30
6.3194e-07 1.0234e-29
6.3236e-07 1.0305e-29
6.3278e-07 7.9658e-30
6.3321e-07 6.229e-30
6.3363e-07 5.2113e-30
6.3405e-07 5.2531e-30
6.3447e-07 5.9791e-30
6.349e-07 6.4763e-30
6.3532e-07 5.7093e-30
6.3575e-07 5.1326e-30
6.3617e-07 5.0587e-30
6.3659e-07 4.6105e-30
6.3702e-07 4.9038e-30
6.3744e-07 5.02e-30
6.3787e-07 3.9645e-30
6.383e-07 3.7816e-30
6.3872e-07 3.9969e-30
6.3915e-07 4.0535e-30
6.3957e-07 4.0205e-30
6.4e-07 3.8739e-30
6.4043e-07 3.9596e-30
6.4086e-07 4.3213e-30
6.4128e-07 4.2507e-30
6.4171e-07 3.9774e-30
6.4214e-07 3.8978e-30
6.4257e-07 4.1731e-30
6.43e-07 4.6739e-30
6.4343e-07 5.2676e-30
6.4386e-07 5.6817e-30
6.4429e-07 6.9298e-30
6.4472e-07 8.2783e-30
6.4515e-07 1.0514e-29
6.4558e-07 1.5161e-29
6.4601e-07 2.3137e-29
6.4644e-07 3.225e-29
6.4687e-07 4.1305e-29
6.473e-07 5.5648e-29
6.4773e-07 6.719e-29
6.4817e-07 6.5502e-29
6.486e-07 5.7846e-29
6.4903e-07 5.1283e-29
6.4946e-07 4.4906e-29
6.499e-07 3.473e-29
6.5033e-07 2.1743e-29
6.5077e-07 1.8896e-29
6.512e-07 3.8166e-29
6.5164e-07 5.9602e-29
6.5207e-07 5.9509e-29
6.5251e-07 3.6622e-29
6.5294e-07 2.3007e-29
6.5338e-07 2.3554e-29
6.5381e-07 2.307e-29
6.5425e-07 2.6427e-29
6.5469e-07 3.4413e-29
6.5512e-07 3.7669e-29
6.5556e-07 3.7253e-29
6.56e-07 3.0801e-29
6.5644e-07 2.7686e-29
6.5687e-07 2.803e-29
6.5731e-07 2.7709e-29
6.5775e-07 2.5426e-29
6.5819e-07 1.9261e-29
6.5863e-07 1.6838e-29
6.5907e-07 1.3544e-29
6.5951e-07 1.0222e-29
6.5995e-07 9.7389e-30
6.6039e-07 9.179e-30
6.6083e-07 6.1863e-30
6.6127e-07 5.0534e-30
6.6171e-07 3.8601e-30
6.6215e-07 2.9775e-30
6.626e-07 3.1517e-30
6.6304e-07 3.1935e-30
6.6348e-07 2.8871e-30
6.6392e-07 2.5605e-30
6.6437e-07 2.8318e-30
6.6481e-07 2.5249e-30
6.6525e-07 2.0737e-30
6.657e-07 1.712e-30
6.6614e-07 1.682e-30
6.6659e-07 1.5424e-30
6.6703e-07 1.2336e-30
6.6748e-07 9.9521e-31
6.6792e-07 7.9571e-31
6.6837e-07 7.3101e-31
6.6881e-07 6.4439e-31
6.6926e-07 4.8032e-31
6.6971e-07 3.3258e-31
6.7015e-07 3.0271e-31
6.706e-07 2.4172e-31
6.7105e-07 1.8305e-31
6.715e-07 1.3711e-31
6.7195e-07 1.2785e-31
6.7239e-07 1.351e-31
6.7284e-07 1.117e-31
6.7329e-07 7.5071e-32
6.7374e-07 7.1598e-32
6.7419e-07 8.3877e-32
6.7464e-07 8.8393e-32
6.7509e-07 7.9297e-32
6.7554e-07 8.9743e-32
6.7599e-07 1.2241e-31
6.7644e-07 1.5893e-31
6.769e-07 1.8996e-31
6.7735e-07 2.1434e-31
6.778e-07 2.4804e-31
6.7825e-07 3.5385e-31
6.787e-07 4.3863e-31
6.7916e-07 4.2982e-31
6.7961e-07 5.2818e-31
6.8006e-07 7.3692e-31
6.8052e-07 9.0898e-31
6.8097e-07 9.7066e-31
6.8143e-07 1.1007e-30
6.8188e-07 1.4282e-30
6.8234e-07 1.8355e-30
6.8279e-07 2.0126e-30
6.8325e-07 1.8339e-30
6.837e-07 2.0197e-30
6.8416e-07 2.5847e-30
6.8462e-07 2.7564e-30
6.8507e-07 2.377e-30
6.8553e-07 2.4039e-30
6.8599e-07 2.7968e-30
6.8645e-07 3.6279e-30
6.869e-07 4.2754e-30
6.8736e-07 3.5883e-30
6.8782e-07 2.586e-30
6.8828e-07 1.97e-30
6.8874e-07 2.2602e-30
6.892e-07 2.6931e-30
6.8966e-07 3.3334e-30
6.9012e-07 4.8628e-30
6.9058e-07 6.9795e-30
6.9104e-07 1.0146e-29
6.915e-07 1.5613e-29
6.9196e-07 2.8967e-29
6.9243e-07 5.0757e-29
6.9289e-07 8.0467e-29
6.9335e-07 1.026e-28
6.9381e-07 1.2395e-28
6.9428e-07 1.4396e-28
6.9474e-07 1.3153e-28
6.952e-07 1.1643e-28
6.9567e-07 1.0847e-28
6.9613e-07 9.5363e-29
6.966e-07 6.0227e-29
6.9706e-07 3.3345e-29
6.9753e-07 2.5987e-29
6.9799e-07 3.4373e-29
6.9846e-07 5.5262e-29
6.9892e-07 8.3371e-29
6.9939e-07 9.5939e-29
6.9986e-07 8.5672e-29
7.0032e-07 8.7664e-29
7.0079e-07 8.5704e-29
7.0126e-07 8.11e-29
7.0173e-07 8.238e-29
7.022e-07 8.6114e-29
7.0267e-07 8.3303e-29
7.0313e-07 6.8057e-29
7.036e-07 5.3003e-29
7.0407e-07 5.479e-29
7.0454e-07 5.0366e-29
7.0501e-07 5.0201e-29
7.0548e-07 5.7053e-29
7.0595e-07 5.0695e-29
7.0643e-07 4.4751e-29
7.069e-07 3.9966e-29
7.0737e-07 3.6406e-29
7.0784e-07 3.6138e-29
7.0831e-07 3.4204e-29
7.0879e-07 2.9388e-29
7.0926e-07 2.89e-29
7.0973e-07 2.8752e-29
7.1021e-07 2.8717e-29
7.1068e-07 2.736e-29
7.1115e-07 2.4278e-29
7.1163e-07 2.1307e-29
7.121e-07 2.1662e-29
7.1258e-07 2.2654e-29
7.1306e-07 2.5688e-29
7.1353e-07 2.7079e-29
7.1401e-07 2.8316e-29
7.1448e-07 3.5964e-29
7.1496e-07 4.4307e-29
7.1544e-07 5.2045e-29
7.1592e-07 6.8211e-29
7.1639e-07 1.3367e-28
7.1687e-07 2.4407e-28
7.1735e-07 3.8032e-28
7.1783e-07 4.2233e-28
7.1831e-07 4.5771e-28
7.1879e-07 4.7185e-28
7.1927e-07 4.7225e-28
7.1975e-07 4.5858e-28
7.2023e-07 4.5722e-28
7.2071e-07 3.7049e-28
7.2119e-07 2.3144e-28
7.2167e-07 1.3519e-28
7.2215e-07 1.1917e-28
7.2263e-07 1.4287e-28
7.2312e-07 2.3614e-28
7.236e-07 3.3484e-28
7.2408e-07 3.7638e-28
7.2457e-07 3.7305e-28
7.2505e-07 3.4586e-28
7.2553e-07 3.3454e-28
7.2602e-07 3.0433e-28
7.265e-07 2.9433e-28
7.2699e-07 3.0138e-28
7.2747e-07 3.3115e-28
7.2796e-07 3.1643e-28
7.2844e-07 2.6402e-28
7.2893e-07 2.6148e-28
7.2942e-07 2.9063e-28
7.299e-07 2.7106e-28
7.3039e-07 2.669e-28
7.3088e-07 2.7391e-28
7.3137e-07 2.4193e-28
7.3185e-07 2.0748e-28
7.3234e-07 1.6231e-28
7.3283e-07 1.2071e-28
7.3332e-07 1.1375e-28
7.3381e-07 9.1075e-29
7.343e-07 7.0446e-29
7.3479e-07 7.8489e-29
7.3528e-07 8.411e-29
7.3577e-07 7.8162e-29
7.3626e-07 8.5215e-29
7.3675e-07 8.2619e-29
7.3724e-07 7.1316e-29
7.3774e-07 5.1077e-29
7.3823e-07 5.0524e-29
7.3872e-07 4.9001e-29
7.3921e-07 4.5027e-29
7.3971e-07 4.0991e-29
7.402e-07 2.9278e-29
7.407e-07 2.1919e-29
7.4119e-07 2.0927e-29
7.4169e-07 1.7291e-29
7.4218e-07 1.5406e-29
7.4268e-07 1.3319e-29
7.4317e-07 9.3885e-30
7.4367e-07 6.4588e-30
7.4416e-07 6.356e-30
7.4466e-07 5.2102e-30
7.4516e-07 4.145e-30
7.4565e-07 3.9529e-30
7.4615e-07 3.1488e-30
7.4665e-07 2.6712e-30
7.4715e-07 2.3904e-30
7.4765e-07 2.0814e-30
7.4815e-07 1.8272e-30
7.4865e-07 1.4878e-30
7.4915e-07 1.3207e-30
7.4965e-07 1.2862e-30
7.5015e-07 1.3287e-30
7.5065e-07 1.3454e-30
7.5115e-07 1.1333e-30
7.5165e-07 9.4897e-31
7.5215e-07 7.8106e-31
7.5265e-07 6.0529e-31
7.5315e-07 4.7595e-31
7.5366e-07 4.9962e-31
7.5416e-07 5.1298e-31
7.5466e-07 4.3667e-31
7.5517e-07 3.9041e-31
7.5567e-07 3.7733e-31
7.5618e-07 3.2701e-31
7.5668e-07 2.6359e-31
7.5719e-07 3.0921e-31
7.5769e-07 4.2265e-31
7.582e-07 4.9936e-31
7.587e-07 4.4976e-31
7.5921e-07 3.4164e-31
7.5972e-07 2.8433e-31
7.6022e-07 2.3934e-31
7.6073e-07 2.2685e-31
7.6124e-07 2.4022e-31
7.6175e-07 2.0313e-31
7.6225e-07 1.4845e-31
7.6276e-07 9.8988e-32
7.6327e-07 9.3879e-32
7.6378e-07 9.4106e-32
7.6429e-07 7.7309e-32
7.648e-07 5.4861e-32
7.6531e-07 4.2584e-32
7.6582e-07 4.1038e-32
7.6633e-07 3.9282e-32
7.6685e-07 3.0281e-32
7.6736e-07 2.3504e-32
7.6787e-07 2.2261e-32
7.6838e-07 2.1681e-32
7.689e-07 2.6732e-32
7.6941e-07 3.2386e-32
7.6992e-07 4.1616e-32
7.7044e-07 4.4839e-32
7.7095e-07 5.4706e-32
7.7146e-07 8.4427e-32
7.7198e-07 9.6526e-32
7.7249e-07 1.1547e-31
7.7301e-07 1.458e-31
7.7353e-07 1.4084e-31
7.7404e-07 1.6186e-31
7.7456e-07 1.882e-31
7.7508e-07 2.0455e-31
7.7559e-07 2.5406e-31
7.7611e-07 2.4734e-31
7.7663e-07 1.9728e-31
7.7715e-07 2.3827e-31
7.7767e-07 3.1381e-31
7.7819e-07 3.3273e-31
7.787e-07 4.0451e-31
7.7922e-07 5.8214e-31
7.7974e-07 6.5731e-31
7.8026e-07 6.9437e-31
7.8079e-07 7.43e-31
7.8131e-07 8.0866e-31
7.8183e-07 1.0652e-30
7.8235e-07 1.3474e-30
7.8287e-07 1.6765e-30
7.8339e-07 2.3831e-30
7.8392e-07 3.7532e-30
7.8444e-07 5.0579e-30
7.8496e-07 6.1328e-30
7.8549e-07 7.0531e-30
7.8601e-07 1.0764e-29
7.8654e-07 1.8423e-29
7.8706e-07 2.5397e-29
7.8759e-07 2.9086e-29
7.8811e-07 2.9667e-29
7.8864e-07 3.8911e-29
7.8917e-07 5.0737e-29
7.8969e-07 5.8652e-29
7.9022e-07 5.5743e-29
7.9075e-07 5.1825e-29
7.9127e-07 4.724e-29
7.918e-07 4.1865e-29
7.9233e-07 4.4584e-29
7.9286e-07 4.343e-29
7.9339e-07 2.7706e-29
7.9392e-07 1.6231e-29
7.9445e-07 1.2661e-29
7.9498e-07 2.0076e-29
7.9551e-07 3.3448e-29
7.9604e-07 5.7725e-29
7.9657e-07 6.6062e-29
7.971e-07 5.095e-29
7.9764e-07 3.5113e-29
7.9817e-07 3.2495e-29
7.987e-07 3.2478e-29
7.9923e-07 3.3616e-29
7.9977e-07 4.1176e-29
8.003e-07 5.1825e-29
8.0083e-07 5.7205e-29
8.0137e-07 5.8149e-29
8.019e-07 5.2816e-29
8.0244e-07 5.5211e-29
8.0297e-07 5.7419e-29
8.0351e-07 5.3762e-29
8.0405e-07 5.2399e-29
8.0458e-07 4.4702e-29
8.0512e-07 3.404e-29
8.0566e-07 2.5296e-29
8.062e-07 2.6488e-29
8.0673e-07 2.6224e-29
8.0727e-07 2.5273e-29
8.0781e-07 2.7333e-29
8.0835e-07 3.2989e-29
8.0889e-07 3.968e-29
8.0943e-07 4.7431e-29
8.0997e-07 5.4422e-29
8.1051e-07 6.3682e-29
8.1105e-07 8.7372e-29
8.1159e-07 1.0073e-28
8.1213e-07 1.1616e-28
8.1268e-07 1.6051e-28
8.1322e-07 2.2482e-28
8.1376e-07 2.8809e-28
8.1431e-07 3.2961e-28
8.1485e-07 3.6463e-28
8.1539e-07 4.0797e-28
8.1594e-07 4.4118e-28
8.1648e-07 4.9242e-28
8.1703e-07 4.6111e-28
8.1757e-07 4.1658e-28
8.1812e-07 4.0994e-28
8.1866e-07 3.5976e-28
8.1921e-07 3.3357e-28
8.1976e-07 3.14e-28
8.203e-07 2.357e-28
8.2085e-07 1.43e-28
8.214e-07 1.2846e-28
8.2195e-07 2.0986e-28
8.225e-07 4.2277e-28
8.2304e-07 6.377e-28
8.2359e-07 5.1531e-28
8.2414e-07 2.7802e-28
8.2469e-07 1.7826e-28
8.2524e-07 1.4564e-28
8.258e-07 1.7641e-28
8.2635e-07 1.8467e-28
8.269e-07 1.662e-28
8.2745e-07 2.4032e-28
8.28e-07 3.049e-28
8.2855e-07 2.8656e-28
8.2911e-07 2.775e-28
8.2966e-07 2.5439e-28
8.3021e-07 2.2807e-28
8.3077e-07 2.1213e-28
8.3132e-07 2.0117e-28
8.3188e-07 2.2506e-28
8.3243e-07 2.1338e-28
8.3299e-07 1.7632e-28
8.3354e-07 1.7133e-28
8.341e-07 1.4441e-28
8.3466e-07 1.0795e-28
8.3522e-07 9.774e-29
8.3577e-07 1.044e-28
8.3633e-07 9.9392e-29
8.3689e-07 8.3957e-29
8.3745e-07 7.757e-29
8.3801e-07 6.7648e-29
8.3857e-07 5.4584e-29
8.3913e-07 4.6638e-29
8.3969e-07 3.8903e-29
8.4025e-07 3.8574e-29
8.4081e-07 4.1721e-29
8.4137e-07 4.0973e-29
8.4193e-07 3.4095e-29
8.4249e-07 2.2502e-29
8.4305e-07 2.1332e-29
8.4362e-07 2.4925e-29
8.4418e-07 2.3807e-29
8.4474e-07 1.6061e-29
8.4531e-07 1.1866e-29
8.4587e-07 1.0371e-29
8.4644e-07 9.5792e-30
8.47e-07 7.5804e-30
8.4757e-07 8.2565e-30
8.4813e-07 1.0846e-29
8.487e-07 1.0816e-29
8.4926e-07 1.0752e-29
8.4983e-07 1.0522e-29
8.504e-07 1.134e-29
8.5097e-07 1.4559e-29
8.5153e-07 1.6747e-29
8.521e-07 1.5384e-29
8.5267e-07 1.18e-29
8.5324e-07 9.9194e-30
8.5381e-07 1.1594e-29
8.5438e-07 1.1819e-29
8.5495e-07 9.4437e-30
8.5552e-07 8.6342e-30
8.5609e-07 6.737e-30
8.5666e-07 5.6654e-30
8.5723e-07 6.89e-30
8.5781e-07 6.0662e-30
8.5838e-07 4.1402e-30
8.5895e-07 4.0125e-30
8.5952e-07 3.7522e-30
8.601e-07 2.569e-30
8.6067e-07 2.0372e-30
8.6125e-07 1.8775e-30
8.6182e-07 1.4973e-30
8.624e-07 1.3889e-30
8.6297e-07 1.2944e-30
8.6355e-07 8.3746e-31
8.6412e-07 6.2441e-31
8.647e-07 6.1951e-31
8.6528e-07 5.2376e-31
8.6586e-07 3.9703e-31
8.6643e-07 2.7382e-31
8.6701e-07 2.9712e-31
8.6759e-07 3.629e-31
8.6817e-07 3.4422e-31
8.6875e-07 3.0517e-31
8.6933e-07 2.8924e-31
8.6991e-07 2.935e-31
8.7049e-07 3.4449e-31
8.7107e-07 4.1487e-31
8.7165e-07 3.6445e-31
8.7223e-07 2.8841e-31
8.7282e-07 3.5392e-31
8.734e-07 5.96e-31
8.7398e-07 7.9099e-31
8.7457e-07 9.0086e-31
8.7515e-07 9.9423e-31
8.7573e-07 1.2591e-30
8.7632e-07 1.4655e-30
8.769e-07 1.4856e-30
8.7749e-07 2.2009e-30
8.7807e-07 3.6135e-30
8.7866e-07 4.0642e-30
8.7925e-07 3.155e-30
8.7983e-07 3.3125e-30
8.8042e-07 4.4923e-30
8.8101e-07 5.4917e-30
8.816e-07 6.3367e-30
8.8218e-07 7.6185e-30
8.8277e-07 7.1219e-30
8.8336e-07 6.8746e-30
8.8395e-07 6.2317e-30
8.8454e-07 5.1414e-30
8.8513e-07 8.083e-30
8.8572e-07 1.455e-29
8.8631e-07 1.5665e-29
8.8691e-07 1.315e-29
8.875e-07 1.3216e-29
8.8809e-07 1.68e-29
8.8868e-07 1.4086e-29
8.8928e-07 1.1262e-29
8.8987e-07 1.5244e-29
8.9046e-07 1.6798e-29
8.9106e-07 1.819e-29
8.9165e-07 2.6304e-29
8.9225e-07 4.4464e-29
8.9284e-07 7.8272e-29
8.9344e-07 1.1219e-28
8.9404e-07 1.4373e-28
8.9463e-07 1.8921e-28
8.9523e-07 2.6221e-28
8.9583e-07 3.4225e-28
8.9642e-07 4.0343e-28
8.9702e-07 4.6488e-28
8.9762e-07 4.4305e-28
8.9822e-07 4.6686e-28
8.9882e-07 6.293e-28
8.9942e-07 6.6008e-28
9.0002e-07 5.4995e-28
9.0062e-07 5.3517e-28
9.0122e-07 5.1586e-28
9.0182e-07 4.8e-28
9.0243e-07 4.3765e-28
9.0303e-07 3.5556e-28
9.0363e-07 2.3488e-28
9.0423e-07 1.7065e-28
9.0484e-07 1.7696e-28
9.0544e-07 2.011e-28
9.0605e-07 2.6005e-28
9.0665e-07 3.6814e-28
9.0726e-07 4.6337e-28
9.0786e-07 5.0416e-28
9.0847e-07 5.1412e-28
9.0907e-07 4.9778e-28
9.0968e-07 5.0687e-28
9.1029e-07 5.0073e-28
9.1089e-07 4.6802e-28
9.115e-07 4.0877e-28
9.1211e-07 4.0957e-28
9.1272e-07 4.8076e-28
9.1333e-07 6.1712e-28
9.1394e-07 5.8563e-28
9.1455e-07 4.6241e-28
9.1516e-07 5.4198e-28
9.1577e-07 6.0748e-28
9.1638e-07 4.8888e-28
9.1699e-07 4.7269e-28
9.176e-07 5.4282e-28
9.1822e-07 4.9911e-28
9.1883e-07 3.7152e-28
9.1944e-07 3.0288e-28
9.2006e-07 2.5487e-28
9.2067e-07 2.157e-28
9.2129e-07 2.6457e-28
9.219e-07 2.6724e-28
9.2252e-07 2.5188e-28
9.2313e-07 2.5252e-28
9.2375e-07 2.9231e-28
9.2436e-07 3.2529e-28
9.2498e-07 3.1594e-28
9.256e-07 2.7953e-28
9.2622e-07 2.794e-28
9.2683e-07 3.0347e-28
9.2745e-07 3.9255e-28
9.2807e-07 6.1127e-28
9.2869e-07 7.9552e-28
9.2931e-07 9.0749e-28
9.2993e-07 1.0972e-27
9.3055e-07 1.2804e-27
9.3117e-07 1.4768e-27
9.3179e-07 1.7925e-27
9.3242e-07 2.1655e-27
9.3304e-07 2.2434e-27
9.3366e-07 2.5416e-27
9.3429e-07 2.7303e-27
9.3491e-07 2.4494e-27
9.3553e-07 2.1263e-27
9.3616e-07 2.1272e-27
9.3678e-07 2.2938e-27
9.3741e-07 2.3164e-27
9.3803e-07 2.1616e-27
9.3866e-07 1.6983e-27
9.3929e-07 1.1383e-27
9.3991e-07 9.6543e-28
9.4054e-07 1.1017e-27
9.4117e-07 1.1691e-27
9.418e-07 1.2618e-27
9.4242e-07 1.3653e-27
9.4305e-07 1.5771e-27
9.4368e-07 1.7059e-27
9.4431e-07 1.8738e-27
9.4494e-07 1.6643e-27
9.4557e-07 1.7136e-27
9.462e-07 1.7613e-27
9.4684e-07 1.6218e-27
9.4747e-07 1.5662e-27
9.481e-07 1.5419e-27
9.4873e-07 1.4328e-27
9.4937e-07 1.4841e-27
9.5e-07 1.7232e-27
