2.8e-07 5.6967e-24
2.8019e-07 5.6736e-24
2.8037e-07 5.7099e-24
2.8056e-07 5.7804e-24
2.8075e-07 5.8612e-24
2.8094e-07 5.954e-24
2.8112e-07 6.0819e-24
2.8131e-07 6.1755e-24
2.815e-07 6.1852e-24
2.8169e-07 6.1124e-24
2.8187e-07 5.9872e-24
2.8206e-07 5.8532e-24
2.8225e-07 5.75e-24
2.8244e-07 5.719e-24
2.8263e-07 5.7623e-24
2.8282e-07 5.8589e-24
2.8301e-07 6.0043e-24
2.8319e-07 6.2013e-24
2.8338e-07 6.451e-24
2.8357e-07 6.7161e-24
2.8376e-07 6.9184e-24
2.8395e-07 7.0371e-24
2.8414e-07 7.1e-24
2.8433e-07 7.151e-24
2.8452e-07 7.227e-24
2.8471e-07 7.3378e-24
2.849e-07 7.4607e-24
2.8509e-07 7.5674e-24
2.8528e-07 7.6608e-24
2.8547e-07 7.7576e-24
2.8566e-07 7.8638e-24
2.8585e-07 7.963e-24
2.8604e-07 8.025e-24
2.8623e-07 8.04e-24
2.8642e-07 8.0134e-24
2.8662e-07 7.9528e-24
2.8681e-07 7.8778e-24
2.87e-07 7.8173e-24
2.8719e-07 7.7985e-24
2.8738e-07 7.8395e-24
2.8757e-07 7.8856e-24
2.8777e-07 7.8928e-24
2.8796e-07 7.8883e-24
2.8815e-07 7.9215e-24
2.8834e-07 8.0086e-24
2.8853e-07 8.1306e-24
2.8873e-07 8.2665e-24
2.8892e-07 8.394e-24
2.8911e-07 8.5087e-24
2.8931e-07 8.6418e-24
2.895e-07 8.8179e-24
2.8969e-07 9.0175e-24
2.8989e-07 9.1915e-24
2.9008e-07 9.2951e-24
2.9027e-07 9.327e-24
2.9047e-07 9.3426e-24
2.9066e-07 9.4231e-24
2.9085e-07 9.6222e-24
2.9105e-07 9.9093e-24
2.9124e-07 1.0192e-23
2.9144e-07 1.0399e-23
2.9163e-07 1.0519e-23
2.9183e-07 1.0604e-23
2.9202e-07 1.072e-23
2.9222e-07 1.0875e-23
2.9241e-07 1.0996e-23
2.9261e-07 1.0979e-23
2.928e-07 1.0797e-23
2.93e-07 1.0555e-23
2.9319e-07 1.0356e-23
2.9339e-07 1.0222e-23
2.9358e-07 1.0147e-23
2.9378e-07 1.0135e-23
2.9398e-07 1.0209e-23
2.9417e-07 1.0407e-23
2.9437e-07 1.0734e-23
2.9456e-07 1.1089e-23
2.9476e-07 1.1328e-23
2.9496e-07 1.1352e-23
2.9515e-07 1.116e-23
2.9535e-07 1.0883e-23
2.9555e-07 1.0687e-23
2.9575e-07 1.0678e-23
2.9594e-07 1.0905e-23
2.9614e-07 1.1327e-23
2.9634e-07 1.1824e-23
2.9654e-07 1.233e-23
2.9673e-07 1.2863e-23
2.9693e-07 1.3451e-23
2.9713e-07 1.4051e-23
2.9733e-07 1.4513e-23
2.9753e-07 1.4669e-23
2.9773e-07 1.4457e-23
2.9792e-07 1.4025e-23
2.9812e-07 1.3609e-23
2.9832e-07 1.3341e-23
2.9852e-07 1.3229e-23
2.9872e-07 1.3232e-23
2.9892e-07 1.3342e-23
2.9912e-07 1.3534e-23
2.9932e-07 1.3727e-23
2.9952e-07 1.3868e-23
2.9972e-07 1.3906e-23
2.9992e-07 1.3782e-23
3.0012e-07 1.3548e-23
3.0032e-07 1.3369e-23
3.0052e-07 1.3341e-23
3.0072e-07 1.3395e-23
3.0092e-07 1.3428e-23
3.0112e-07 1.3479e-23
3.0132e-07 1.3673e-23
3.0152e-07 1.4039e-23
3.0173e-07 1.4506e-23
3.0193e-07 1.498e-23
3.0213e-07 1.5373e-23
3.0233e-07 1.5625e-23
3.0253e-07 1.5801e-23
3.0273e-07 1.6049e-23
3.0294e-07 1.6403e-23
3.0314e-07 1.6726e-23
3.0334e-07 1.6882e-23
3.0354e-07 1.6881e-23
3.0375e-07 1.6802e-23
3.0395e-07 1.673e-23
3.0415e-07 1.6738e-23
3.0435e-07 1.6846e-23
3.0456e-07 1.7021e-23
3.0476e-07 1.7218e-23
3.0496e-07 1.7359e-23
3.0517e-07 1.7339e-23
3.0537e-07 1.7172e-23
3.0557e-07 1.6942e-23
3.0578e-07 1.6755e-23
3.0598e-07 1.6697e-23
3.0619e-07 1.682e-23
3.0639e-07 1.7116e-23
3.066e-07 1.7507e-23
3.068e-07 1.7927e-23
3.0701e-07 1.8304e-23
3.0721e-07 1.8512e-23
3.0742e-07 1.8488e-23
3.0762e-07 1.8279e-23
3.0783e-07 1.7993e-23
3.0803e-07 1.7766e-23
3.0824e-07 1.7709e-23
3.0844e-07 1.7951e-23
3.0865e-07 1.8556e-23
3.0885e-07 1.9388e-23
3.0906e-07 2.0122e-23
3.0927e-07 2.053e-23
3.0947e-07 2.0619e-23
3.0968e-07 2.0447e-23
3.0989e-07 2.0136e-23
3.1009e-07 1.9896e-23
3.103e-07 1.988e-23
3.1051e-07 2.01e-23
3.1071e-07 2.0438e-23
3.1092e-07 2.074e-23
3.1113e-07 2.0993e-23
3.1134e-07 2.1248e-23
3.1155e-07 2.1414e-23
3.1175e-07 2.145e-23
3.1196e-07 2.1582e-23
3.1217e-07 2.1983e-23
3.1238e-07 2.2474e-23
3.1259e-07 2.2735e-23
3.1279e-07 2.2686e-23
3.13e-07 2.2442e-23
3.1321e-07 2.2115e-23
3.1342e-07 2.1776e-23
3.1363e-07 2.1542e-23
3.1384e-07 2.1508e-23
3.1405e-07 2.1669e-23
3.1426e-07 2.2039e-23
3.1447e-07 2.2651e-23
3.1468e-07 2.3393e-23
3.1489e-07 2.4004e-23
3.151e-07 2.4233e-23
3.1531e-07 2.4049e-23
3.1552e-07 2.3694e-23
3.1573e-07 2.3362e-23
3.1594e-07 2.3078e-23
3.1615e-07 2.2885e-23
3.1636e-07 2.2934e-23
3.1657e-07 2.3292e-23
3.1679e-07 2.3834e-23
3.17e-07 2.4485e-23
3.1721e-07 2.5257e-23
3.1742e-07 2.606e-23
3.1763e-07 2.6671e-23
3.1784e-07 2.6915e-23
3.1806e-07 2.6865e-23
3.1827e-07 2.6655e-23
3.1848e-07 2.6306e-23
3.1869e-07 2.5931e-23
3.1891e-07 2.5679e-23
3.1912e-07 2.5603e-23
3.1933e-07 2.5729e-23
3.1955e-07 2.6141e-23
3.1976e-07 2.6832e-23
3.1997e-07 2.7583e-23
3.2019e-07 2.8131e-23
3.204e-07 2.827e-23
3.2061e-07 2.7973e-23
3.2083e-07 2.7508e-23
3.2104e-07 2.7173e-23
3.2126e-07 2.7005e-23
3.2147e-07 2.6995e-23
3.2168e-07 2.7211e-23
3.219e-07 2.764e-23
3.2211e-07 2.8169e-23
3.2233e-07 2.869e-23
3.2254e-07 2.914e-23
3.2276e-07 2.9448e-23
3.2297e-07 2.957e-23
3.2319e-07 2.9549e-23
3.2341e-07 2.9442e-23
3.2362e-07 2.9294e-23
3.2384e-07 2.9102e-23
3.2405e-07 2.8888e-23
3.2427e-07 2.8822e-23
3.2449e-07 2.9042e-23
3.247e-07 2.9627e-23
3.2492e-07 3.0565e-23
3.2514e-07 3.1572e-23
3.2535e-07 3.2205e-23
3.2557e-07 3.2279e-23
3.2579e-07 3.2065e-23
3.2601e-07 3.1983e-23
3.2622e-07 3.2177e-23
3.2644e-07 3.2417e-23
3.2666e-07 3.2335e-23
3.2688e-07 3.198e-23
3.271e-07 3.1742e-23
3.2731e-07 3.1922e-23
3.2753e-07 3.2464e-23
3.2775e-07 3.2975e-23
3.2797e-07 3.3126e-23
3.2819e-07 3.2888e-23
3.2841e-07 3.2518e-23
3.2863e-07 3.2306e-23
3.2885e-07 3.2454e-23
3.2907e-07 3.2968e-23
3.2928e-07 3.3658e-23
3.295e-07 3.4335e-23
3.2972e-07 3.4786e-23
3.2994e-07 3.4808e-23
3.3016e-07 3.4402e-23
3.3039e-07 3.3887e-23
3.3061e-07 3.3633e-23
3.3083e-07 3.3725e-23
3.3105e-07 3.4008e-23
3.3127e-07 3.4285e-23
3.3149e-07 3.4434e-23
3.3171e-07 3.4467e-23
3.3193e-07 3.4572e-23
3.3215e-07 3.5108e-23
3.3238e-07 3.6327e-23
3.326e-07 3.8035e-23
3.3282e-07 3.9645e-23
3.3304e-07 4.0467e-23
3.3326e-07 4.0139e-23
3.3349e-07 3.9003e-23
3.3371e-07 3.764e-23
3.3393e-07 3.6292e-23
3.3415e-07 3.5219e-23
3.3438e-07 3.495e-23
3.346e-07 3.5814e-23
3.3482e-07 3.752e-23
3.3505e-07 3.8827e-23
3.3527e-07 3.8732e-23
3.3549e-07 3.7885e-23
3.3572e-07 3.7395e-23
3.3594e-07 3.7635e-23
3.3617e-07 3.8332e-23
3.3639e-07 3.9007e-23
3.3662e-07 3.9389e-23
3.3684e-07 3.9402e-23
3.3706e-07 3.8926e-23
3.3729e-07 3.8084e-23
3.3752e-07 3.7256e-23
3.3774e-07 3.6881e-23
3.3797e-07 3.7471e-23
3.3819e-07 3.9284e-23
3.3842e-07 4.1682e-23
3.3864e-07 4.3507e-23
3.3887e-07 4.4324e-23
3.391e-07 4.433e-23
3.3932e-07 4.3701e-23
3.3955e-07 4.2791e-23
3.3977e-07 4.2185e-23
3.4e-07 4.2155e-23
3.4023e-07 4.2477e-23
3.4046e-07 4.2959e-23
3.4068e-07 4.3699e-23
3.4091e-07 4.4759e-23
3.4114e-07 4.5733e-23
3.4137e-07 4.6048e-23
3.4159e-07 4.5587e-23
3.4182e-07 4.4518e-23
3.4205e-07 4.2994e-23
3.4228e-07 4.1419e-23
3.4251e-07 4.0175e-23
3.4273e-07 3.9368e-23
3.4296e-07 3.9132e-23
3.4319e-07 3.9724e-23
3.4342e-07 4.0997e-23
3.4365e-07 4.2241e-23
3.4388e-07 4.2962e-23
3.4411e-07 4.3128e-23
3.4434e-07 4.3119e-23
3.4457e-07 4.3368e-23
3.448e-07 4.3798e-23
3.4503e-07 4.4104e-23
3.4526e-07 4.4181e-23
3.4549e-07 4.4155e-23
3.4572e-07 4.455e-23
3.4595e-07 4.5612e-23
3.4618e-07 4.6805e-23
3.4641e-07 4.7656e-23
3.4664e-07 4.81e-23
3.4688e-07 4.7991e-23
3.4711e-07 4.7376e-23
3.4734e-07 4.6724e-23
3.4757e-07 4.6575e-23
3.478e-07 4.763e-23
3.4803e-07 5.0338e-23
3.4827e-07 5.3481e-23
3.485e-07 5.4695e-23
3.4873e-07 5.333e-23
3.4896e-07 5.0473e-23
3.492e-07 4.7259e-23
3.4943e-07 4.4745e-23
3.4966e-07 4.3514e-23
3.499e-07 4.3391e-23
3.5013e-07 4.4048e-23
3.5036e-07 4.525e-23
3.506e-07 4.6631e-23
3.5083e-07 4.7837e-23
3.5107e-07 4.8701e-23
3.513e-07 4.8803e-23
3.5154e-07 4.7859e-23
3.5177e-07 4.6741e-23
3.52e-07 4.6665e-23
3.5224e-07 4.7186e-23
3.5247e-07 4.6825e-23
3.5271e-07 4.5282e-23
3.5295e-07 4.3728e-23
3.5318e-07 4.3436e-23
3.5342e-07 4.4664e-23
3.5365e-07 4.7044e-23
3.5389e-07 5.0138e-23
3.5412e-07 5.3358e-23
3.5436e-07 5.5729e-23
3.546e-07 5.637e-23
3.5483e-07 5.5356e-23
3.5507e-07 5.3311e-23
3.5531e-07 5.0989e-23
3.5555e-07 4.9009e-23
3.5578e-07 4.7792e-23
3.5602e-07 4.772e-23
3.5626e-07 4.88e-23
3.565e-07 5.0777e-23
3.5673e-07 5.3435e-23
3.5697e-07 5.6063e-23
3.5721e-07 5.757e-23
3.5745e-07 5.7412e-23
3.5769e-07 5.61e-23
3.5793e-07 5.4515e-23
3.5816e-07 5.307e-23
3.584e-07 5.1669e-23
3.5864e-07 5.0234e-23
3.5888e-07 4.891e-23
3.5912e-07 4.8105e-23
3.5936e-07 4.7981e-23
3.596e-07 4.8055e-23
3.5984e-07 4.8148e-23
3.6008e-07 4.8741e-23
3.6032e-07 5.0237e-23
3.6056e-07 5.2243e-23
3.608e-07 5.4012e-23
3.6104e-07 5.4829e-23
3.6128e-07 5.4497e-23
3.6153e-07 5.3456e-23
3.6177e-07 5.2548e-23
3.6201e-07 5.2346e-23
3.6225e-07 5.2743e-23
3.6249e-07 5.3215e-23
3.6273e-07 5.3427e-23
3.6298e-07 5.3378e-23
3.6322e-07 5.2998e-23
3.6346e-07 5.2236e-23
3.637e-07 5.1431e-23
3.6395e-07 5.151e-23
3.6419e-07 5.2848e-23
3.6443e-07 5.4842e-23
3.6468e-07 5.702e-23
3.6492e-07 5.919e-23
3.6516e-07 6.1127e-23
3.6541e-07 6.2015e-23
3.6565e-07 6.13e-23
3.6589e-07 5.9248e-23
3.6614e-07 5.6501e-23
3.6638e-07 5.409e-23
3.6663e-07 5.3059e-23
3.6687e-07 5.3703e-23
3.6712e-07 5.5447e-23
3.6736e-07 5.7104e-23
3.6761e-07 5.7721e-23
3.6785e-07 5.7478e-23
3.681e-07 5.6854e-23
3.6834e-07 5.6026e-23
3.6859e-07 5.5254e-23
3.6884e-07 5.4922e-23
3.6908e-07 5.5304e-23
3.6933e-07 5.582e-23
3.6957e-07 5.5919e-23
3.6982e-07 5.5958e-23
3.7007e-07 5.6222e-23
3.7031e-07 5.609e-23
3.7056e-07 5.5158e-23
3.7081e-07 5.4215e-23
3.7106e-07 5.456e-23
3.713e-07 5.6218e-23
3.7155e-07 5.868e-23
3.718e-07 6.1206e-23
3.7205e-07 6.2782e-23
3.723e-07 6.3151e-23
3.7255e-07 6.255e-23
3.7279e-07 6.0934e-23
3.7304e-07 5.8912e-23
3.7329e-07 5.7342e-23
3.7354e-07 5.6614e-23
3.7379e-07 5.6739e-23
3.7404e-07 5.6754e-23
3.7429e-07 5.5793e-23
3.7454e-07 5.4637e-23
3.7479e-07 5.4758e-23
3.7504e-07 5.6657e-23
3.7529e-07 5.9472e-23
3.7554e-07 6.1685e-23
3.7579e-07 6.3226e-23
3.7604e-07 6.5248e-23
3.7629e-07 6.7067e-23
3.7654e-07 6.6711e-23
3.7679e-07 6.422e-23
3.7705e-07 6.0841e-23
3.773e-07 5.7743e-23
3.7755e-07 5.5733e-23
3.778e-07 5.5011e-23
3.7805e-07 5.4787e-23
3.7831e-07 5.4653e-23
3.7856e-07 5.5032e-23
3.7881e-07 5.5996e-23
3.7906e-07 5.7705e-23
3.7932e-07 6.0421e-23
3.7957e-07 6.3547e-23
3.7982e-07 6.5357e-23
3.8008e-07 6.5238e-23
3.8033e-07 6.4445e-23
3.8058e-07 6.381e-23
3.8084e-07 6.2943e-23
3.8109e-07 6.1817e-23
3.8135e-07 6.1017e-23
3.816e-07 6.0735e-23
3.8186e-07 6.0572e-23
3.8211e-07 5.9942e-23
3.8237e-07 5.8544e-23
3.8262e-07 5.7324e-23
3.8288e-07 5.7233e-23
3.8313e-07 5.7876e-23
3.8339e-07 5.8826e-23
3.8364e-07 5.997e-23
3.839e-07 6.1245e-23
3.8416e-07 6.2058e-23
3.8441e-07 6.3007e-23
3.8467e-07 6.4084e-23
3.8493e-07 6.4005e-23
3.8518e-07 6.287e-23
3.8544e-07 6.2389e-23
3.857e-07 6.2485e-23
3.8595e-07 6.1347e-23
3.8621e-07 5.9224e-23
3.8647e-07 5.8024e-23
3.8673e-07 5.8614e-23
3.8699e-07 6.0224e-23
3.8724e-07 6.1655e-23
3.875e-07 6.254e-23
3.8776e-07 6.2907e-23
3.8802e-07 6.2579e-23
3.8828e-07 6.1663e-23
3.8854e-07 6.1236e-23
3.888e-07 6.2124e-23
3.8906e-07 6.3725e-23
3.8932e-07 6.4349e-23
3.8958e-07 6.3567e-23
3.8984e-07 6.299e-23
3.901e-07 6.3294e-23
3.9036e-07 6.3389e-23
3.9062e-07 6.2792e-23
3.9088e-07 6.2233e-23
3.9114e-07 6.2569e-23
3.914e-07 6.4054e-23
3.9166e-07 6.6346e-23
3.9192e-07 6.7018e-23
3.9218e-07 6.5453e-23
3.9245e-07 6.4003e-23
3.9271e-07 6.2743e-23
3.9297e-07 6.0495e-23
3.9323e-07 5.8216e-23
3.935e-07 5.7662e-23
3.9376e-07 5.8058e-23
3.9402e-07 5.794e-23
3.9428e-07 5.7368e-23
3.9455e-07 5.7335e-23
3.9481e-07 5.8626e-23
3.9507e-07 6.1153e-23
3.9534e-07 6.3999e-23
3.956e-07 6.5764e-23
3.9587e-07 6.5758e-23
3.9613e-07 6.3907e-23
3.9639e-07 6.1201e-23
3.9666e-07 5.9186e-23
3.9692e-07 5.8405e-23
3.9719e-07 5.857e-23
3.9745e-07 5.9796e-23
3.9772e-07 6.2787e-23
3.9798e-07 6.6608e-23
3.9825e-07 6.9168e-23
3.9852e-07 6.8986e-23
3.9878e-07 6.5518e-23
3.9905e-07 6.1656e-23
3.9931e-07 6.0729e-23
3.9958e-07 6.308e-23
3.9985e-07 6.6745e-23
4.0011e-07 6.9374e-23
4.0038e-07 6.9774e-23
4.0065e-07 6.9012e-23
4.0092e-07 6.8178e-23
4.0118e-07 6.7136e-23
4.0145e-07 6.5609e-23
4.0172e-07 6.3703e-23
4.0199e-07 6.1354e-23
4.0226e-07 5.8911e-23
4.0252e-07 5.7177e-23
4.0279e-07 5.6327e-23
4.0306e-07 5.6104e-23
4.0333e-07 5.6649e-23
4.036e-07 5.8678e-23
4.0387e-07 6.1416e-23
4.0414e-07 6.247e-23
4.0441e-07 6.2035e-23
4.0468e-07 6.287e-23
4.0495e-07 6.5383e-23
4.0522e-07 6.6671e-23
4.0549e-07 6.4342e-23
4.0576e-07 6.0644e-23
4.0603e-07 5.8575e-23
4.063e-07 5.708e-23
4.0657e-07 5.4544e-23
4.0684e-07 5.2326e-23
4.0712e-07 5.1781e-23
4.0739e-07 5.3303e-23
4.0766e-07 5.7162e-23
4.0793e-07 6.2631e-23
4.082e-07 6.7995e-23
4.0848e-07 7.0501e-23
4.0875e-07 6.8797e-23
4.0902e-07 6.5952e-23
4.0929e-07 6.46e-23
4.0957e-07 6.4192e-23
4.0984e-07 6.3658e-23
4.1011e-07 6.5265e-23
4.1039e-07 6.7959e-23
4.1066e-07 6.7661e-23
4.1094e-07 6.4365e-23
4.1121e-07 6.0164e-23
4.1149e-07 5.692e-23
4.1176e-07 5.5536e-23
4.1203e-07 5.5489e-23
4.1231e-07 5.6866e-23
4.1258e-07 6.0459e-23
4.1286e-07 6.5665e-23
4.1314e-07 7.1302e-23
4.1341e-07 7.4504e-23
4.1369e-07 7.2117e-23
4.1396e-07 6.5443e-23
4.1424e-07 6.0216e-23
4.1452e-07 5.9243e-23
4.1479e-07 5.998e-23
4.1507e-07 5.9561e-23
4.1535e-07 5.6812e-23
4.1562e-07 5.3321e-23
4.159e-07 5.1703e-23
4.1618e-07 5.1513e-23
4.1646e-07 5.186e-23
4.1673e-07 5.2666e-23
4.1701e-07 5.4149e-23
4.1729e-07 5.5792e-23
4.1757e-07 5.6584e-23
4.1785e-07 5.7503e-23
4.1813e-07 5.8585e-23
4.1841e-07 5.9404e-23
4.1869e-07 5.8861e-23
4.1897e-07 5.8121e-23
4.1924e-07 5.9515e-23
4.1952e-07 6.1551e-23
4.198e-07 6.2223e-23
4.2008e-07 6.2021e-23
4.2037e-07 6.2095e-23
4.2065e-07 6.2464e-23
4.2093e-07 6.252e-23
4.2121e-07 6.1238e-23
4.2149e-07 6.0575e-23
4.2177e-07 6.2115e-23
4.2205e-07 6.3711e-23
4.2233e-07 6.3267e-23
4.2262e-07 6.1949e-23
4.229e-07 6.0955e-23
4.2318e-07 6.1367e-23
4.2346e-07 6.2809e-23
4.2374e-07 6.4182e-23
4.2403e-07 6.52e-23
4.2431e-07 6.6083e-23
4.2459e-07 6.5705e-23
4.2488e-07 6.2535e-23
4.2516e-07 5.8212e-23
4.2544e-07 5.4748e-23
4.2573e-07 5.1568e-23
4.2601e-07 4.8742e-23
4.263e-07 4.7362e-23
4.2658e-07 4.7816e-23
4.2687e-07 5.1094e-23
4.2715e-07 5.6361e-23
4.2744e-07 6.0324e-23
4.2772e-07 6.2007e-23
4.2801e-07 6.2252e-23
4.2829e-07 6.0586e-23
4.2858e-07 5.7191e-23
4.2886e-07 5.3509e-23
4.2915e-07 4.9873e-23
4.2944e-07 4.6891e-23
4.2972e-07 4.6355e-23
4.3001e-07 4.9471e-23
4.303e-07 5.5216e-23
4.3058e-07 6.0077e-23
4.3087e-07 6.2002e-23
4.3116e-07 6.1359e-23
4.3145e-07 5.9172e-23
4.3174e-07 5.5809e-23
4.3202e-07 5.1665e-23
4.3231e-07 4.8403e-23
4.326e-07 4.7597e-23
4.3289e-07 4.9677e-23
4.3318e-07 5.3296e-23
4.3347e-07 5.6809e-23
4.3376e-07 5.8813e-23
4.3405e-07 5.8663e-23
4.3434e-07 5.8518e-23
4.3463e-07 6.2333e-23
4.3492e-07 6.8212e-23
4.3521e-07 6.96e-23
4.355e-07 6.5972e-23
4.3579e-07 6.1966e-23
4.3608e-07 5.9005e-23
4.3637e-07 5.6331e-23
4.3666e-07 5.3171e-23
4.3695e-07 4.9148e-23
4.3724e-07 4.5386e-23
4.3754e-07 4.3039e-23
4.3783e-07 4.2078e-23
4.3812e-07 4.3484e-23
4.3841e-07 4.9611e-23
4.387e-07 5.9225e-23
4.39e-07 6.6609e-23
4.3929e-07 6.8939e-23
4.3958e-07 6.6623e-23
4.3988e-07 6.1785e-23
4.4017e-07 5.5827e-23
4.4046e-07 4.9604e-23
4.4076e-07 4.5902e-23
4.4105e-07 4.3989e-23
4.4135e-07 4.1774e-23
4.4164e-07 3.9793e-23
4.4194e-07 3.9463e-23
4.4223e-07 4.0695e-23
4.4253e-07 4.2398e-23
4.4282e-07 4.4229e-23
4.4312e-07 4.556e-23
4.4341e-07 4.6607e-23
4.4371e-07 4.7891e-23
4.44e-07 5.0817e-23
4.443e-07 5.6411e-23
4.446e-07 6.2545e-23
4.4489e-07 6.4556e-23
4.4519e-07 6.0887e-23
4.4549e-07 5.6003e-23
4.4579e-07 5.2137e-23
4.4608e-07 4.8685e-23
4.4638e-07 4.5351e-23
4.4668e-07 4.3819e-23
4.4698e-07 4.5493e-23
4.4728e-07 5.0914e-23
4.4757e-07 5.9707e-23
4.4787e-07 6.7882e-23
4.4817e-07 6.9318e-23
4.4847e-07 6.3275e-23
4.4877e-07 5.594e-23
4.4907e-07 5.0745e-23
4.4937e-07 4.6811e-23
4.4967e-07 4.4012e-23
4.4997e-07 4.3674e-23
4.5027e-07 4.5531e-23
4.5057e-07 4.6862e-23
4.5087e-07 4.6508e-23
4.5117e-07 4.5407e-23
4.5147e-07 4.5004e-23
4.5177e-07 4.6183e-23
4.5208e-07 4.7542e-23
4.5238e-07 4.8011e-23
4.5268e-07 4.7538e-23
4.5298e-07 4.6595e-23
4.5328e-07 4.5901e-23
4.5359e-07 4.3783e-23
4.5389e-07 4.1121e-23
4.5419e-07 4.1019e-23
4.545e-07 4.3719e-23
4.548e-07 4.5784e-23
4.551e-07 4.5397e-23
4.5541e-07 4.4074e-23
4.5571e-07 4.3589e-23
4.5601e-07 4.2858e-23
4.5632e-07 4.0338e-23
4.5662e-07 3.7905e-23
4.5693e-07 3.9009e-23
4.5723e-07 4.3827e-23
4.5754e-07 4.8846e-23
4.5784e-07 5.1165e-23
4.5815e-07 5.0724e-23
4.5846e-07 4.8671e-23
4.5876e-07 4.5518e-23
4.5907e-07 4.2911e-23
4.5937e-07 4.2947e-23
4.5968e-07 4.4513e-23
4.5999e-07 4.6862e-23
4.6029e-07 4.9174e-23
4.606e-07 4.9294e-23
4.6091e-07 4.7188e-23
4.6122e-07 4.4606e-23
4.6152e-07 4.1896e-23
4.6183e-07 3.9903e-23
4.6214e-07 4.0167e-23
4.6245e-07 4.3937e-23
4.6276e-07 5.0743e-23
4.6307e-07 5.5639e-23
4.6338e-07 5.5436e-23
4.6368e-07 5.1753e-23
4.6399e-07 4.7796e-23
4.643e-07 4.5223e-23
4.6461e-07 4.2922e-23
4.6492e-07 3.9704e-23
4.6523e-07 3.5698e-23
4.6554e-07 3.2236e-23
4.6586e-07 3.1249e-23
4.6617e-07 3.3525e-23
4.6648e-07 3.8216e-23
4.6679e-07 4.262e-23
4.671e-07 4.4016e-23
4.6741e-07 4.3234e-23
4.6772e-07 4.248e-23
4.6804e-07 4.0952e-23
4.6835e-07 3.8234e-23
4.6866e-07 3.6249e-23
4.6897e-07 3.5028e-23
4.6929e-07 3.37e-23
4.696e-07 3.2869e-23
4.6991e-07 3.3581e-23
4.7023e-07 3.4646e-23
4.7054e-07 3.4391e-23
4.7086e-07 3.3284e-23
4.7117e-07 3.2845e-23
4.7148e-07 3.3709e-23
4.718e-07 3.4909e-23
4.7211e-07 3.4972e-23
4.7243e-07 3.4489e-23
4.7274e-07 3.4905e-23
4.7306e-07 3.7082e-23
4.7338e-07 4.1695e-23
4.7369e-07 4.7262e-23
4.7401e-07 4.9691e-23
4.7432e-07 4.9022e-23
4.7464e-07 4.8265e-23
4.7496e-07 4.6903e-23
4.7527e-07 4.4106e-23
4.7559e-07 4.0696e-23
4.7591e-07 3.8106e-23
4.7623e-07 3.634e-23
4.7654e-07 3.4929e-23
4.7686e-07 3.392e-23
4.7718e-07 3.3465e-23
4.775e-07 3.344e-23
4.7782e-07 3.3325e-23
4.7814e-07 3.2906e-23
4.7846e-07 3.3069e-23
4.7878e-07 3.4559e-23
4.7909e-07 3.7359e-23
4.7941e-07 4.0559e-23
4.7973e-07 4.1458e-23
4.8005e-07 3.9406e-23
4.8038e-07 3.714e-23
4.807e-07 3.6158e-23
4.8102e-07 3.6394e-23
4.8134e-07 3.6517e-23
4.8166e-07 3.4787e-23
4.8198e-07 3.2108e-23
4.823e-07 2.9775e-23
4.8262e-07 2.7801e-23
4.8295e-07 2.5932e-23
4.8327e-07 2.4802e-23
4.8359e-07 2.4651e-23
4.8391e-07 2.5469e-23
4.8424e-07 2.6707e-23
4.8456e-07 2.777e-23
4.8488e-07 2.83e-23
4.8521e-07 2.8421e-23
4.8553e-07 2.8619e-23
4.8585e-07 2.895e-23
4.8618e-07 2.8409e-23
4.865e-07 2.7164e-23
4.8683e-07 2.6479e-23
4.8715e-07 2.6611e-23
4.8748e-07 2.811e-23
4.878e-07 3.1343e-23
4.8813e-07 3.6403e-23
4.8846e-07 4.1897e-23
4.8878e-07 4.4399e-23
4.8911e-07 4.2716e-23
4.8943e-07 3.9452e-23
4.8976e-07 3.6117e-23
4.9009e-07 3.325e-23
4.9041e-07 3.0471e-23
4.9074e-07 2.7374e-23
4.9107e-07 2.4968e-23
4.914e-07 2.4352e-23
4.9173e-07 2.5385e-23
4.9205e-07 2.6168e-23
4.9238e-07 2.5986e-23
4.9271e-07 2.6341e-23
4.9304e-07 2.7897e-23
4.9337e-07 2.9725e-23
4.937e-07 3.1104e-23
4.9403e-07 3.2701e-23
4.9436e-07 3.4398e-23
4.9469e-07 3.469e-23
4.9502e-07 3.3472e-23
4.9535e-07 3.2727e-23
4.9568e-07 3.3007e-23
4.9601e-07 3.3248e-23
4.9634e-07 3.2956e-23
4.9667e-07 3.1448e-23
4.97e-07 2.8447e-23
4.9733e-07 2.5343e-23
4.9767e-07 2.3101e-23
4.98e-07 2.1451e-23
4.9833e-07 1.9988e-23
4.9866e-07 1.8866e-23
4.99e-07 1.785e-23
4.9933e-07 1.6852e-23
4.9966e-07 1.6301e-23
5e-07 1.6341e-23
5.0033e-07 1.6884e-23
5.0066e-07 1.7896e-23
5.01e-07 1.8956e-23
5.0133e-07 1.9624e-23
5.0167e-07 2.0741e-23
5.02e-07 2.2956e-23
5.0234e-07 2.5637e-23
5.0267e-07 2.747e-23
5.0301e-07 2.6832e-23
5.0334e-07 2.4608e-23
5.0368e-07 2.3912e-23
5.0402e-07 2.6122e-23
5.0435e-07 3.0039e-23
5.0469e-07 3.2609e-23
5.0503e-07 3.1668e-23
5.0536e-07 2.8354e-23
5.057e-07 2.5248e-23
5.0604e-07 2.3916e-23
5.0637e-07 2.3452e-23
5.0671e-07 2.2549e-23
5.0705e-07 2.1228e-23
5.0739e-07 2.026e-23
5.0773e-07 2.0271e-23
5.0807e-07 2.1256e-23
5.0841e-07 2.2836e-23
5.0875e-07 2.4458e-23
5.0909e-07 2.5916e-23
5.0942e-07 2.7081e-23
5.0976e-07 2.7622e-23
5.1011e-07 2.6944e-23
5.1045e-07 2.5939e-23
5.1079e-07 2.5354e-23
5.1113e-07 2.5015e-23
5.1147e-07 2.4303e-23
5.1181e-07 2.402e-23
5.1215e-07 2.4612e-23
5.1249e-07 2.4416e-23
5.1284e-07 2.2722e-23
5.1318e-07 2.0734e-23
5.1352e-07 1.93e-23
5.1386e-07 1.8347e-23
5.1421e-07 1.7798e-23
5.1455e-07 1.7226e-23
5.1489e-07 1.6439e-23
5.1524e-07 1.5891e-23
5.1558e-07 1.5691e-23
5.1592e-07 1.542e-23
5.1627e-07 1.5016e-23
5.1661e-07 1.4316e-23
5.1696e-07 1.3714e-23
5.173e-07 1.3787e-23
5.1765e-07 1.4664e-23
5.1799e-07 1.6645e-23
5.1834e-07 1.8834e-23
5.1869e-07 1.9536e-23
5.1903e-07 1.9271e-23
5.1938e-07 1.9292e-23
5.1972e-07 1.9324e-23
5.2007e-07 1.8896e-23
5.2042e-07 1.7812e-23
5.2077e-07 1.6688e-23
5.2111e-07 1.5694e-23
5.2146e-07 1.5084e-23
5.2181e-07 1.4853e-23
5.2216e-07 1.4812e-23
5.2251e-07 1.5117e-23
5.2285e-07 1.5528e-23
5.232e-07 1.536e-23
5.2355e-07 1.5099e-23
5.239e-07 1.5693e-23
5.2425e-07 1.7253e-23
5.246e-07 1.9782e-23
5.2495e-07 2.2401e-23
5.253e-07 2.348e-23
5.2565e-07 2.3002e-23
5.26e-07 2.2406e-23
5.2635e-07 2.193e-23
5.2671e-07 2.0563e-23
5.2706e-07 1.8743e-23
5.2741e-07 1.8134e-23
5.2776e-07 1.8336e-23
5.2811e-07 1.7986e-23
5.2847e-07 1.695e-23
5.2882e-07 1.596e-23
5.2917e-07 1.5327e-23
5.2953e-07 1.5009e-23
5.2988e-07 1.5344e-23
5.3023e-07 1.5986e-23
5.3059e-07 1.5971e-23
5.3094e-07 1.5743e-23
5.3129e-07 1.5896e-23
5.3165e-07 1.6169e-23
5.32e-07 1.6457e-23
5.3236e-07 1.663e-23
5.3271e-07 1.6314e-23
5.3307e-07 1.5488e-23
5.3343e-07 1.4361e-23
5.3378e-07 1.3427e-23
5.3414e-07 1.2875e-23
5.3449e-07 1.2033e-23
5.3485e-07 1.0725e-23
5.3521e-07 9.4194e-24
5.3557e-07 8.8563e-24
5.3592e-07 9.0097e-24
5.3628e-07 9.2252e-24
5.3664e-07 9.0073e-24
5.37e-07 8.7718e-24
5.3736e-07 8.9667e-24
5.3771e-07 9.8807e-24
5.3807e-07 1.1462e-23
5.3843e-07 1.2657e-23
5.3879e-07 1.297e-23
5.3915e-07 1.2792e-23
5.3951e-07 1.1862e-23
5.3987e-07 1.0457e-23
5.4023e-07 9.2342e-24
5.4059e-07 8.7362e-24
5.4095e-07 9.3644e-24
5.4131e-07 1.0902e-23
5.4167e-07 1.2731e-23
5.4204e-07 1.4083e-23
5.424e-07 1.4825e-23
5.4276e-07 1.5209e-23
5.4312e-07 1.5276e-23
5.4349e-07 1.475e-23
5.4385e-07 1.3823e-23
5.4421e-07 1.3217e-23
5.4457e-07 1.3683e-23
5.4494e-07 1.4816e-23
5.453e-07 1.492e-23
5.4567e-07 1.3595e-23
5.4603e-07 1.224e-23
5.4639e-07 1.139e-23
5.4676e-07 1.1354e-23
5.4712e-07 1.2407e-23
5.4749e-07 1.3527e-23
5.4785e-07 1.384e-23
5.4822e-07 1.3572e-23
5.4859e-07 1.3468e-23
5.4895e-07 1.3642e-23
5.4932e-07 1.3383e-23
5.4968e-07 1.2364e-23
5.5005e-07 1.1345e-23
5.5042e-07 1.0669e-23
5.5079e-07 1.0079e-23
5.5115e-07 9.5406e-24
5.5152e-07 9.4099e-24
5.5189e-07 9.6883e-24
5.5226e-07 1.0271e-23
5.5263e-07 1.0983e-23
5.53e-07 1.1517e-23
5.5336e-07 1.1227e-23
5.5373e-07 1.0491e-23
5.541e-07 9.9224e-24
5.5447e-07 9.1531e-24
5.5484e-07 8.2146e-24
5.5521e-07 7.4634e-24
5.5558e-07 6.8787e-24
5.5596e-07 6.5328e-24
5.5633e-07 6.6009e-24
5.567e-07 6.7073e-24
5.5707e-07 6.6543e-24
5.5744e-07 6.6488e-24
5.5781e-07 6.7946e-24
5.5819e-07 6.7871e-24
5.5856e-07 6.3401e-24
5.5893e-07 5.7378e-24
5.593e-07 5.4006e-24
5.5968e-07 5.4807e-24
5.6005e-07 5.7989e-24
5.6042e-07 6.1816e-24
5.608e-07 6.556e-24
5.6117e-07 6.9284e-24
5.6155e-07 7.2506e-24
5.6192e-07 7.4863e-24
5.623e-07 7.8531e-24
5.6267e-07 8.6379e-24
5.6305e-07 9.736e-24
5.6342e-07 1.1036e-23
5.638e-07 1.1812e-23
5.6418e-07 1.2138e-23
5.6455e-07 1.2177e-23
5.6493e-07 1.129e-23
5.6531e-07 1.006e-23
5.6568e-07 8.5572e-24
5.6606e-07 6.9616e-24
5.6644e-07 6.1091e-24
5.6682e-07 6.1124e-24
5.672e-07 6.7297e-24
5.6757e-07 7.6359e-24
5.6795e-07 8.323e-24
5.6833e-07 8.4265e-24
5.6871e-07 8.0033e-24
5.6909e-07 7.7084e-24
5.6947e-07 7.757e-24
5.6985e-07 8.3482e-24
5.7023e-07 9.3796e-24
5.7061e-07 1.0325e-23
5.7099e-07 1.0549e-23
5.7137e-07 1.0295e-23
5.7176e-07 1.01e-23
5.7214e-07 9.6722e-24
5.7252e-07 8.7189e-24
5.729e-07 7.7754e-24
5.7328e-07 7.0689e-24
5.7367e-07 6.3585e-24
5.7405e-07 5.6926e-24
5.7443e-07 5.2323e-24
5.7482e-07 4.9713e-24
5.752e-07 4.6858e-24
5.7558e-07 4.2187e-24
5.7597e-07 3.7312e-24
5.7635e-07 3.4536e-24
5.7674e-07 3.4177e-24
5.7712e-07 3.533e-24
5.7751e-07 3.7413e-24
5.7789e-07 4.1223e-24
5.7828e-07 4.7378e-24
5.7866e-07 5.5024e-24
5.7905e-07 5.9353e-24
5.7944e-07 5.9174e-24
5.7982e-07 5.7747e-24
5.8021e-07 5.5286e-24
5.806e-07 5.0324e-24
5.8098e-07 4.3875e-24
5.8137e-07 3.952e-24
5.8176e-07 3.7645e-24
5.8215e-07 3.6046e-24
5.8254e-07 3.565e-24
5.8293e-07 3.7183e-24
5.8331e-07 3.8597e-24
5.837e-07 4.0472e-24
5.8409e-07 4.4785e-24
5.8448e-07 5.1284e-24
5.8487e-07 5.7768e-24
5.8526e-07 6.1624e-24
5.8565e-07 6.1033e-24
5.8605e-07 5.7766e-24
5.8644e-07 5.5446e-24
5.8683e-07 5.3173e-24
5.8722e-07 4.9593e-24
5.8761e-07 4.5645e-24
5.88e-07 4.3044e-24
5.884e-07 4.2579e-24
5.8879e-07 4.4813e-24
5.8918e-07 4.9569e-24
5.8958e-07 5.4761e-24
5.8997e-07 5.979e-24
5.9036e-07 6.3738e-24
5.9076e-07 6.3824e-24
5.9115e-07 6.4649e-24
5.9155e-07 7.0845e-24
5.9194e-07 7.7267e-24
5.9234e-07 7.9307e-24
5.9273e-07 7.7828e-24
5.9313e-07 7.1908e-24
5.9352e-07 6.1293e-24
5.9392e-07 5.0691e-24
5.9431e-07 4.2595e-24
5.9471e-07 3.7616e-24
5.9511e-07 3.3196e-24
5.9551e-07 3.0262e-24
5.959e-07 3.032e-24
5.963e-07 3.152e-24
5.967e-07 3.2138e-24
5.971e-07 3.3202e-24
5.975e-07 3.4273e-24
5.9789e-07 3.4822e-24
5.9829e-07 3.6003e-24
5.9869e-07 3.8729e-24
5.9909e-07 4.1436e-24
5.9949e-07 4.4365e-24
5.9989e-07 4.7405e-24
6.0029e-07 4.8665e-24
6.0069e-07 4.8092e-24
6.0109e-07 4.6686e-24
6.015e-07 4.47e-24
6.019e-07 4.1174e-24
6.023e-07 3.6357e-24
6.027e-07 3.0854e-24
6.031e-07 2.5144e-24
6.0351e-07 2.0604e-24
6.0391e-07 1.8024e-24
6.0431e-07 1.678e-24
6.0471e-07 1.7033e-24
6.0512e-07 1.8676e-24
6.0552e-07 1.9558e-24
6.0593e-07 1.8615e-24
6.0633e-07 1.8005e-24
6.0674e-07 1.8526e-24
6.0714e-07 1.9031e-24
6.0755e-07 1.9921e-24
6.0795e-07 2.0755e-24
6.0836e-07 2.0516e-24
6.0876e-07 2.006e-24
6.0917e-07 1.9863e-24
6.0958e-07 1.9847e-24
6.0998e-07 2.028e-24
6.1039e-07 2.1802e-24
6.108e-07 2.5936e-24
6.112e-07 3.3052e-24
6.1161e-07 4.0454e-24
6.1202e-07 4.7056e-24
6.1243e-07 5.1774e-24
6.1284e-07 4.9073e-24
6.1325e-07 4.0769e-24
6.1366e-07 3.6092e-24
6.1407e-07 3.4647e-24
6.1448e-07 3.2434e-24
6.1489e-07 3.0189e-24
6.153e-07 3.0628e-24
6.1571e-07 3.3728e-24
6.1612e-07 3.7673e-24
6.1653e-07 4.0926e-24
6.1694e-07 4.0767e-24
6.1735e-07 3.7579e-24
6.1776e-07 3.3703e-24
6.1818e-07 2.8702e-24
6.1859e-07 2.4677e-24
6.19e-07 2.3991e-24
6.1942e-07 2.5777e-24
6.1983e-07 2.8637e-24
6.2024e-07 3.1953e-24
6.2066e-07 3.314e-24
6.2107e-07 3.0238e-24
6.2149e-07 2.5608e-24
6.219e-07 2.2404e-24
6.2232e-07 2.1749e-24
6.2273e-07 2.2487e-24
6.2315e-07 2.3378e-24
6.2356e-07 2.3809e-24
6.2398e-07 2.3325e-24
6.2439e-07 2.2703e-24
6.2481e-07 2.2351e-24
6.2523e-07 2.183e-24
6.2565e-07 2.0611e-24
6.2606e-07 1.9133e-24
6.2648e-07 1.8031e-24
6.269e-07 1.7002e-24
6.2732e-07 1.5781e-24
6.2774e-07 1.461e-24
6.2816e-07 1.3836e-24
6.2857e-07 1.3657e-24
6.2899e-07 1.3557e-24
6.2941e-07 1.2603e-24
6.2983e-07 1.1321e-24
6.3025e-07 1.0919e-24
6.3068e-07 1.1691e-24
6.311e-07 1.2841e-24
6.3152e-07 1.3756e-24
6.3194e-07 1.4075e-24
6.3236e-07 1.3621e-24
6.3278e-07 1.2909e-24
6.3321e-07 1.3374e-24
6.3363e-07 1.448e-24
6.3405e-07 1.4921e-24
6.3447e-07 1.4448e-24
6.349e-07 1.3721e-24
6.3532e-07 1.3826e-24
6.3575e-07 1.4444e-24
6.3617e-07 1.508e-24
6.3659e-07 1.531e-24
6.3702e-07 1.5367e-24
6.3744e-07 1.5646e-24
6.3787e-07 1.5636e-24
6.383e-07 1.4756e-24
6.3872e-07 1.4144e-24
6.3915e-07 1.4259e-24
6.3957e-07 1.4901e-24
6.4e-07 1.5562e-24
6.4043e-07 1.5961e-24
6.4086e-07 1.6402e-24
6.4128e-07 1.7089e-24
6.4171e-07 1.8787e-24
6.4214e-07 2.0986e-24
6.4257e-07 2.2053e-24
6.43e-07 2.155e-24
6.4343e-07 2.0196e-24
6.4386e-07 1.7899e-24
6.4429e-07 1.5866e-24
6.4472e-07 1.5729e-24
6.4515e-07 1.6857e-24
6.4558e-07 1.8441e-24
6.4601e-07 2.1255e-24
6.4644e-07 2.479e-24
6.4687e-07 2.7012e-24
6.473e-07 2.6731e-24
6.4773e-07 2.3957e-24
6.4817e-07 1.9013e-24
6.486e-07 1.4581e-24
6.4903e-07 1.2638e-24
6.4946e-07 1.2302e-24
6.499e-07 1.2845e-24
6.5033e-07 1.373e-24
6.5077e-07 1.4184e-24
6.512e-07 1.4166e-24
6.5164e-07 1.3381e-24
6.5207e-07 1.2231e-24
6.5251e-07 1.1361e-24
6.5294e-07 1.0556e-24
6.5338e-07 9.7978e-25
6.5381e-07 9.3914e-25
6.5425e-07 9.5111e-25
6.5469e-07 9.8679e-25
6.5512e-07 1.0033e-24
6.5556e-07 1.0085e-24
6.56e-07 9.7707e-25
6.5644e-07 8.845e-25
6.5687e-07 7.9646e-25
6.5731e-07 7.3318e-25
6.5775e-07 7.0359e-25
6.5819e-07 6.9738e-25
6.5863e-07 7.1071e-25
6.5907e-07 7.2766e-25
6.5951e-07 7.2542e-25
6.5995e-07 6.8276e-25
6.6039e-07 6.1002e-25
6.6083e-07 5.4751e-25
6.6127e-07 4.9168e-25
6.6171e-07 4.4469e-25
6.6215e-07 4.1293e-25
6.626e-07 3.9682e-25
6.6304e-07 3.9519e-25
6.6348e-07 3.9906e-25
6.6392e-07 4.1613e-25
6.6437e-07 4.6444e-25
6.6481e-07 5.3592e-25
6.6525e-07 6.0485e-25
6.657e-07 6.642e-25
6.6614e-07 6.3253e-25
6.6659e-07 3.9951e-25
6.6703e-07 1.3114e-25
6.6748e-07 1.8293e-26
6.6792e-07 3.3048e-28
6.6837e-07 0
6.6881e-07 0
6.6926e-07 0
6.6971e-07 0
6.7015e-07 0
6.706e-07 0
6.7105e-07 0
6.715e-07 0
6.7195e-07 0
6.7239e-07 0
6.7284e-07 0
6.7329e-07 0
6.7374e-07 0
6.7419e-07 0
6.7464e-07 0
6.7509e-07 0
6.7554e-07 0
6.7599e-07 0
6.7644e-07 0
6.769e-07 0
6.7735e-07 0
6.778e-07 0
6.7825e-07 0
6.787e-07 0
6.7916e-07 0
6.7961e-07 0
6.8006e-07 0
6.8052e-07 0
6.8097e-07 0
6.8143e-07 0
6.8188e-07 0
6.8234e-07 0
6.8279e-07 0
6.8325e-07 0
6.837e-07 0
6.8416e-07 0
6.8462e-07 0
6.8507e-07 0
6.8553e-07 0
6.8599e-07 0
6.8645e-07 0
6.869e-07 0
6.8736e-07 0
6.8782e-07 0
6.8828e-07 0
6.8874e-07 0
6.892e-07 0
6.8966e-07 0
6.9012e-07 0
6.9058e-07 0
6.9104e-07 0
6.915e-07 0
6.9196e-07 0
6.9243e-07 0
6.9289e-07 0
6.9335e-07 0
6.9381e-07 0
6.9428e-07 0
6.9474e-07 0
6.952e-07 0
6.9567e-07 0
6.9613e-07 0
6.966e-07 0
6.9706e-07 0
6.9753e-07 0
6.9799e-07 0
6.9846e-07 0
6.9892e-07 0
6.9939e-07 0
6.9986e-07 0
7.0032e-07 0
7.0079e-07 0
7.0126e-07 0
7.0173e-07 0
7.022e-07 0
7.0267e-07 0
7.0313e-07 0
7.036e-07 0
7.0407e-07 0
7.0454e-07 0
7.0501e-07 0
7.0548e-07 0
7.0595e-07 0
7.0643e-07 0
7.069e-07 0
7.0737e-07 0
7.0784e-07 0
7.0831e-07 0
7.0879e-07 0
7.0926e-07 0
7.0973e-07 0
7.1021e-07 0
7.1068e-07 0
7.1115e-07 0
7.1163e-07 0
7.121e-07 0
7.1258e-07 0
7.1306e-07 0
7.1353e-07 0
7.1401e-07 0
7.1448e-07 0
7.1496e-07 0
7.1544e-07 0
7.1592e-07 0
7.1639e-07 0
7.1687e-07 0
7.1735e-07 0
7.1783e-07 0
7.1831e-07 0
7.1879e-07 0
7.1927e-07 0
7.1975e-07 0
7.2023e-07 0
7.2071e-07 0
7.2119e-07 0
7.2167e-07 0
7.2215e-07 0
7.2263e-07 0
7.2312e-07 0
7.236e-07 0
7.2408e-07 0
7.2457e-07 0
7.2505e-07 0
7.2553e-07 0
7.2602e-07 0
7.265e-07 0
7.2699e-07 0
7.2747e-07 0
7.2796e-07 0
7.2844e-07 0
7.2893e-07 0
7.2942e-07 0
7.299e-07 0
7.3039e-07 0
7.3088e-07 0
7.3137e-07 0
7.3185e-07 0
7.3234e-07 0
7.3283e-07 0
7.3332e-07 0
7.3381e-07 0
7.343e-07 0
7.3479e-07 0
7.3528e-07 0
7.3577e-07 0
7.3626e-07 0
7.3675e-07 0
7.3724e-07 0
7.3774e-07 0
7.3823e-07 0
7.3872e-07 0
7.3921e-07 0
7.3971e-07 0
7.402e-07 0
7.407e-07 0
7.4119e-07 0
7.4169e-07 0
7.4218e-07 0
7.4268e-07 0
7.4317e-07 0
7.4367e-07 0
7.4416e-07 0
7.4466e-07 0
7.4516e-07 0
7.4565e-07 0
7.4615e-07 0
7.4665e-07 0
7.4715e-07 0
7.4765e-07 0
7.4815e-07 0
7.4865e-07 0
7.4915e-07 0
7.4965e-07 0
7.5015e-07 0
7.5065e-07 0
7.5115e-07 0
7.5165e-07 0
7.5215e-07 0
7.5265e-07 0
7.5315e-07 0
7.5366e-07 0
7.5416e-07 0
7.5466e-07 0
7.5517e-07 0
7.5567e-07 0
7.5618e-07 0
7.5668e-07 0
7.5719e-07 0
7.5769e-07 0
7.582e-07 0
7.587e-07 0
7.5921e-07 0
7.5972e-07 0
7.6022e-07 0
7.6073e-07 0
7.6124e-07 0
7.6175e-07 0
7.6225e-07 0
7.6276e-07 0
7.6327e-07 0
7.6378e-07 0
7.6429e-07 0
7.648e-07 0
7.6531e-07 0
7.6582e-07 0
7.6633e-07 0
7.6685e-07 0
7.6736e-07 0
7.6787e-07 0
7.6838e-07 0
7.689e-07 0
7.6941e-07 0
7.6992e-07 0
7.7044e-07 0
7.7095e-07 0
7.7146e-07 0
7.7198e-07 0
7.7249e-07 0
7.7301e-07 0
7.7353e-07 0
7.7404e-07 0
7.7456e-07 0
7.7508e-07 0
7.7559e-07 0
7.7611e-07 0
7.7663e-07 0
7.7715e-07 0
7.7767e-07 0
7.7819e-07 0
7.787e-07 0
7.7922e-07 0
7.7974e-07 0
7.8026e-07 0
7.8079e-07 0
7.8131e-07 0
7.8183e-07 0
7.8235e-07 0
7.8287e-07 0
7.8339e-07 0
7.8392e-07 0
7.8444e-07 0
7.8496e-07 0
7.8549e-07 0
7.8601e-07 0
7.8654e-07 0
7.8706e-07 0
7.8759e-07 0
7.8811e-07 0
7.8864e-07 0
7.8917e-07 0
7.8969e-07 0
7.9022e-07 0
7.9075e-07 0
7.9127e-07 0
7.918e-07 0
7.9233e-07 0
7.9286e-07 0
7.9339e-07 0
7.9392e-07 0
7.9445e-07 0
7.9498e-07 0
7.9551e-07 0
7.9604e-07 0
7.9657e-07 0
7.971e-07 0
7.9764e-07 0
7.9817e-07 0
7.987e-07 0
7.9923e-07 0
7.9977e-07 0
8.003e-07 0
8.0083e-07 0
8.0137e-07 0
8.019e-07 0
8.0244e-07 0
8.0297e-07 0
8.0351e-07 0
8.0405e-07 0
8.0458e-07 0
8.0512e-07 0
8.0566e-07 0
8.062e-07 0
8.0673e-07 0
8.0727e-07 0
8.0781e-07 0
8.0835e-07 0
8.0889e-07 0
8.0943e-07 0
8.0997e-07 0
8.1051e-07 0
8.1105e-07 0
8.1159e-07 0
8.1213e-07 0
8.1268e-07 0
8.1322e-07 0
8.1376e-07 0
8.1431e-07 0
8.1485e-07 0
8.1539e-07 0
8.1594e-07 0
8.1648e-07 0
8.1703e-07 0
8.1757e-07 0
8.1812e-07 0
8.1866e-07 0
8.1921e-07 0
8.1976e-07 0
8.203e-07 0
8.2085e-07 0
8.214e-07 0
8.2195e-07 0
8.225e-07 0
8.2304e-07 0
8.2359e-07 0
8.2414e-07 0
8.2469e-07 0
8.2524e-07 0
8.258e-07 0
8.2635e-07 0
8.269e-07 0
8.2745e-07 0
8.28e-07 0
8.2855e-07 0
8.2911e-07 0
8.2966e-07 0
8.3021e-07 0
8.3077e-07 0
8.3132e-07 0
8.3188e-07 0
8.3243e-07 0
8.3299e-07 0
8.3354e-07 0
8.341e-07 0
8.3466e-07 0
8.3522e-07 0
8.3577e-07 0
8.3633e-07 0
8.3689e-07 0
8.3745e-07 0
8.3801e-07 0
8.3857e-07 0
8.3913e-07 0
8.3969e-07 0
8.4025e-07 0
8.4081e-07 0
8.4137e-07 0
8.4193e-07 0
8.4249e-07 0
8.4305e-07 0
8.4362e-07 0
8.4418e-07 0
8.4474e-07 0
8.4531e-07 0
8.4587e-07 0
8.4644e-07 0
8.47e-07 0
8.4757e-07 0
8.4813e-07 0
8.487e-07 0
8.4926e-07 0
8.4983e-07 0
8.504e-07 0
8.5097e-07 0
8.5153e-07 0
8.521e-07 0
8.5267e-07 0
8.5324e-07 0
8.5381e-07 0
8.5438e-07 0
8.5495e-07 0
8.5552e-07 0
8.5609e-07 0
8.5666e-07 0
8.5723e-07 0
8.5781e-07 0
8.5838e-07 0
8.5895e-07 0
8.5952e-07 0
8.601e-07 0
8.6067e-07 0
8.6125e-07 0
8.6182e-07 0
8.624e-07 0
8.6297e-07 0
8.6355e-07 0
8.6412e-07 0
8.647e-07 0
8.6528e-07 0
8.6586e-07 0
8.6643e-07 0
8.6701e-07 0
8.6759e-07 0
8.6817e-07 0
8.6875e-07 0
8.6933e-07 0
8.6991e-07 0
8.7049e-07 0
8.7107e-07 0
8.7165e-07 0
8.7223e-07 0
8.7282e-07 0
8.734e-07 0
8.7398e-07 0
8.7457e-07 0
8.7515e-07 0
8.7573e-07 0
8.7632e-07 0
8.769e-07 0
8.7749e-07 0
8.7807e-07 0
8.7866e-07 0
8.7925e-07 0
8.7983e-07 0
8.8042e-07 0
8.8101e-07 0
8.816e-07 0
8.8218e-07 0
8.8277e-07 0
8.8336e-07 0
8.8395e-07 0
8.8454e-07 0
8.8513e-07 0
8.8572e-07 0
8.8631e-07 0
8.8691e-07 0
8.875e-07 0
8.8809e-07 0
8.8868e-07 0
8.8928e-07 0
8.8987e-07 0
8.9046e-07 0
8.9106e-07 0
8.9165e-07 0
8.9225e-07 0
8.9284e-07 0
8.9344e-07 0
8.9404e-07 0
8.9463e-07 0
8.9523e-07 0
8.9583e-07 0
8.9642e-07 0
8.9702e-07 0
8.9762e-07 0
8.9822e-07 0
8.9882e-07 0
8.9942e-07 0
9.0002e-07 0
9.0062e-07 0
9.0122e-07 0
9.0182e-07 0
9.0243e-07 0
9.0303e-07 0
9.0363e-07 0
9.0423e-07 0
9.0484e-07 0
9.0544e-07 0
9.0605e-07 0
9.0665e-07 0
9.0726e-07 0
9.0786e-07 0
9.0847e-07 0
9.0907e-07 0
9.0968e-07 0
9.1029e-07 0
9.1089e-07 0
9.115e-07 0
9.1211e-07 0
9.1272e-07 0
9.1333e-07 0
9.1394e-07 0
9.1455e-07 0
9.1516e-07 0
9.1577e-07 0
9.1638e-07 0
9.1699e-07 0
9.176e-07 0
9.1822e-07 0
9.1883e-07 0
9.1944e-07 0
9.2006e-07 0
9.2067e-07 0
9.2129e-07 0
9.219e-07 0
9.2252e-07 0
9.2313e-07 0
9.2375e-07 0
9.2436e-07 0
9.2498e-07 0
9.256e-07 0
9.2622e-07 0
9.2683e-07 0
9.2745e-07 0
9.2807e-07 0
9.2869e-07 0
9.2931e-07 0
9.2993e-07 0
9.3055e-07 0
9.3117e-07 0
9.3179e-07 0
9.3242e-07 0
9.3304e-07 0
9.3366e-07 0
9.3429e-07 0
9.3491e-07 0
9.3553e-07 0
9.3616e-07 0
9.3678e-07 0
9.3741e-07 0
9.3803e-07 0
9.3866e-07 0
9.3929e-07 0
9.3991e-07 0
9.4054e-07 0
9.4117e-07 0
9.418e-07 0
9.4242e-07 0
9.4305e-07 0
9.4368e-07 0
9.4431e-07 0
9.4494e-07 0
9.4557e-07 0
9.462e-07 0
9.4684e-07 0
9.4747e-07 0
9.481e-07 0
9.4873e-07 0
9.4937e-07 0
9.5e-07 0
