2.8e-07 5.6966e-24
2.8023e-07 5.6777e-24
2.8047e-07 5.7438e-24
2.807e-07 5.8377e-24
2.8094e-07 5.9493e-24
2.8117e-07 6.1061e-24
2.814e-07 6.1946e-24
2.8164e-07 6.134e-24
2.8187e-07 5.9884e-24
2.8211e-07 5.8268e-24
2.8234e-07 5.7252e-24
2.8258e-07 5.7456e-24
2.8282e-07 5.8617e-24
2.8305e-07 6.0478e-24
2.8329e-07 6.3055e-24
2.8352e-07 6.6357e-24
2.8376e-07 6.9119e-24
2.84e-07 7.0515e-24
2.8423e-07 7.1213e-24
2.8447e-07 7.2033e-24
2.8471e-07 7.3344e-24
2.8495e-07 7.4841e-24
2.8518e-07 7.6118e-24
2.8542e-07 7.7314e-24
2.8566e-07 7.8617e-24
2.859e-07 7.9809e-24
2.8614e-07 8.0381e-24
2.8638e-07 8.0231e-24
2.8661e-07 7.9526e-24
2.8685e-07 7.8617e-24
2.8709e-07 7.801e-24
2.8733e-07 7.8265e-24
2.8757e-07 7.8827e-24
2.8781e-07 7.8875e-24
2.8805e-07 7.9001e-24
2.8829e-07 7.9823e-24
2.8853e-07 8.1281e-24
2.8877e-07 8.2965e-24
2.8901e-07 8.4468e-24
2.8926e-07 8.6013e-24
2.895e-07 8.8166e-24
2.8974e-07 9.0614e-24
2.8998e-07 9.2479e-24
2.9022e-07 9.3203e-24
2.9046e-07 9.342e-24
2.9071e-07 9.4612e-24
2.9095e-07 9.7556e-24
2.9119e-07 1.0118e-23
2.9143e-07 1.0391e-23
2.9168e-07 1.0536e-23
2.9192e-07 1.0656e-23
2.9216e-07 1.0836e-23
2.9241e-07 1.0991e-23
2.9265e-07 1.0943e-23
2.929e-07 1.0681e-23
2.9314e-07 1.0406e-23
2.9339e-07 1.0225e-23
2.9363e-07 1.014e-23
2.9388e-07 1.016e-23
2.9412e-07 1.0345e-23
2.9437e-07 1.073e-23
2.9461e-07 1.1156e-23
2.9486e-07 1.1363e-23
2.951e-07 1.122e-23
2.9535e-07 1.089e-23
2.956e-07 1.0671e-23
2.9584e-07 1.0764e-23
2.9609e-07 1.1206e-23
2.9634e-07 1.1813e-23
2.9658e-07 1.2447e-23
2.9683e-07 1.3143e-23
2.9708e-07 1.3897e-23
2.9733e-07 1.4499e-23
2.9757e-07 1.4635e-23
2.9782e-07 1.4258e-23
2.9807e-07 1.3716e-23
2.9832e-07 1.3351e-23
2.9857e-07 1.3221e-23
2.9882e-07 1.3275e-23
2.9907e-07 1.3479e-23
2.9932e-07 1.3723e-23
2.9957e-07 1.3887e-23
2.9982e-07 1.3858e-23
3.0007e-07 1.3612e-23
3.0032e-07 1.338e-23
3.0057e-07 1.3353e-23
3.0082e-07 1.3409e-23
3.0107e-07 1.346e-23
3.0132e-07 1.3675e-23
3.0157e-07 1.4142e-23
3.0182e-07 1.4737e-23
3.0207e-07 1.5274e-23
3.0233e-07 1.5615e-23
3.0258e-07 1.5853e-23
3.0283e-07 1.6216e-23
3.0308e-07 1.6643e-23
3.0334e-07 1.6875e-23
3.0359e-07 1.6865e-23
3.0384e-07 1.6762e-23
3.041e-07 1.6731e-23
3.0435e-07 1.6844e-23
3.046e-07 1.7069e-23
3.0486e-07 1.7297e-23
3.0511e-07 1.7355e-23
3.0537e-07 1.7175e-23
3.0562e-07 1.6895e-23
3.0588e-07 1.6712e-23
3.0613e-07 1.6775e-23
3.0639e-07 1.7109e-23
3.0664e-07 1.7603e-23
3.069e-07 1.8117e-23
3.0715e-07 1.8469e-23
3.0741e-07 1.8486e-23
3.0767e-07 1.8215e-23
3.0792e-07 1.7874e-23
3.0818e-07 1.7707e-23
3.0844e-07 1.7956e-23
3.087e-07 1.8744e-23
3.0895e-07 1.9756e-23
3.0921e-07 2.0443e-23
3.0947e-07 2.0612e-23
3.0973e-07 2.0377e-23
3.0998e-07 2.001e-23
3.1024e-07 1.9867e-23
3.105e-07 2.0097e-23
3.1076e-07 2.0505e-23
3.1102e-07 2.0864e-23
3.1128e-07 2.1183e-23
3.1154e-07 2.1397e-23
3.118e-07 2.1468e-23
3.1206e-07 2.1759e-23
3.1232e-07 2.2339e-23
3.1258e-07 2.2718e-23
3.1284e-07 2.2642e-23
3.131e-07 2.2292e-23
3.1336e-07 2.1866e-23
3.1362e-07 2.1555e-23
3.1389e-07 2.153e-23
3.1415e-07 2.1821e-23
3.1441e-07 2.2469e-23
3.1467e-07 2.337e-23
3.1494e-07 2.4074e-23
3.152e-07 2.4173e-23
3.1546e-07 2.3802e-23
3.1572e-07 2.3368e-23
3.1599e-07 2.3022e-23
3.1625e-07 2.289e-23
3.1651e-07 2.317e-23
3.1678e-07 2.3806e-23
3.1704e-07 2.465e-23
3.1731e-07 2.5645e-23
3.1757e-07 2.6518e-23
3.1784e-07 2.6904e-23
3.181e-07 2.6831e-23
3.1837e-07 2.6496e-23
3.1863e-07 2.6036e-23
3.189e-07 2.569e-23
3.1917e-07 2.5614e-23
3.1943e-07 2.5897e-23
3.197e-07 2.6625e-23
3.1996e-07 2.7555e-23
3.2023e-07 2.8187e-23
3.205e-07 2.8157e-23
3.2077e-07 2.7648e-23
3.2103e-07 2.7187e-23
3.213e-07 2.6988e-23
3.2157e-07 2.7076e-23
3.2184e-07 2.7506e-23
3.2211e-07 2.815e-23
3.2238e-07 2.8796e-23
3.2264e-07 2.9297e-23
3.2291e-07 2.955e-23
3.2318e-07 2.9549e-23
3.2345e-07 2.9415e-23
3.2372e-07 2.9206e-23
3.2399e-07 2.8944e-23
3.2426e-07 2.883e-23
3.2453e-07 2.9145e-23
3.248e-07 3.0043e-23
3.2507e-07 3.13e-23
3.2535e-07 3.2164e-23
3.2562e-07 3.2236e-23
3.2589e-07 3.2007e-23
3.2616e-07 3.2113e-23
3.2643e-07 3.2391e-23
3.2671e-07 3.2259e-23
3.2698e-07 3.1844e-23
3.2725e-07 3.1845e-23
3.2752e-07 3.244e-23
3.278e-07 3.3022e-23
3.2807e-07 3.3041e-23
3.2834e-07 3.2625e-23
3.2862e-07 3.2324e-23
3.2889e-07 3.255e-23
3.2917e-07 3.3276e-23
3.2944e-07 3.415e-23
3.2972e-07 3.476e-23
3.2999e-07 3.4734e-23
3.3027e-07 3.4161e-23
3.3054e-07 3.3685e-23
3.3082e-07 3.3721e-23
3.3109e-07 3.4068e-23
3.3137e-07 3.4366e-23
3.3165e-07 3.4458e-23
3.3192e-07 3.4574e-23
3.322e-07 3.5335e-23
3.3248e-07 3.709e-23
3.3275e-07 3.921e-23
3.3303e-07 4.0405e-23
3.3331e-07 3.9933e-23
3.3359e-07 3.8397e-23
3.3387e-07 3.6663e-23
3.3414e-07 3.5278e-23
3.3442e-07 3.5075e-23
3.347e-07 3.6588e-23
3.3498e-07 3.8487e-23
3.3526e-07 3.8728e-23
3.3554e-07 3.7771e-23
3.3582e-07 3.7446e-23
3.361e-07 3.8107e-23
3.3638e-07 3.8968e-23
3.3666e-07 3.9421e-23
3.3694e-07 3.9223e-23
3.3722e-07 3.8352e-23
3.375e-07 3.7291e-23
3.3779e-07 3.6935e-23
3.3807e-07 3.822e-23
3.3835e-07 4.0961e-23
3.3863e-07 4.34e-23
3.3891e-07 4.4378e-23
3.392e-07 4.4082e-23
3.3948e-07 4.3064e-23
3.3976e-07 4.2235e-23
3.4005e-07 4.2202e-23
3.4033e-07 4.2669e-23
3.4061e-07 4.3465e-23
3.409e-07 4.4715e-23
3.4118e-07 4.5821e-23
3.4147e-07 4.5915e-23
3.4175e-07 4.4875e-23
3.4204e-07 4.3067e-23
3.4232e-07 4.1157e-23
3.4261e-07 3.976e-23
3.4289e-07 3.9147e-23
3.4318e-07 3.9712e-23
3.4347e-07 4.1255e-23
3.4375e-07 4.262e-23
3.4404e-07 4.31e-23
3.4433e-07 4.3142e-23
3.4461e-07 4.3453e-23
3.449e-07 4.3956e-23
3.4519e-07 4.4163e-23
3.4548e-07 4.4163e-23
3.4577e-07 4.4763e-23
3.4605e-07 4.6145e-23
3.4634e-07 4.7437e-23
3.4663e-07 4.8072e-23
3.4692e-07 4.7874e-23
3.4721e-07 4.7067e-23
3.475e-07 4.6534e-23
3.4779e-07 4.7627e-23
3.4808e-07 5.103e-23
3.4837e-07 5.421e-23
3.4866e-07 5.3928e-23
3.4895e-07 5.0628e-23
3.4924e-07 4.6716e-23
3.4953e-07 4.4084e-23
3.4983e-07 4.3344e-23
3.5012e-07 4.4022e-23
3.5041e-07 4.5519e-23
3.507e-07 4.7187e-23
3.5099e-07 4.8495e-23
3.5129e-07 4.8759e-23
3.5158e-07 4.7604e-23
3.5187e-07 4.6654e-23
3.5217e-07 4.7024e-23
3.5246e-07 4.6802e-23
3.5276e-07 4.495e-23
3.5305e-07 4.3475e-23
3.5334e-07 4.4173e-23
3.5364e-07 4.6899e-23
3.5393e-07 5.0795e-23
3.5423e-07 5.4533e-23
3.5452e-07 5.6304e-23
3.5482e-07 5.5424e-23
3.5512e-07 5.2866e-23
3.5541e-07 5.0056e-23
3.5571e-07 4.8092e-23
3.5601e-07 4.7729e-23
3.563e-07 4.9129e-23
3.566e-07 5.1925e-23
3.569e-07 5.529e-23
3.572e-07 5.7463e-23
3.5749e-07 5.7198e-23
3.5779e-07 5.5406e-23
3.5809e-07 5.3507e-23
3.5839e-07 5.1756e-23
3.5869e-07 4.9953e-23
3.5899e-07 4.8504e-23
3.5929e-07 4.7986e-23
3.5959e-07 4.8019e-23
3.5989e-07 4.8233e-23
3.6019e-07 4.9336e-23
3.6049e-07 5.1603e-23
3.6079e-07 5.3894e-23
3.6109e-07 5.4804e-23
3.6139e-07 5.4066e-23
3.6169e-07 5.2803e-23
3.6199e-07 5.2365e-23
3.623e-07 5.283e-23
3.626e-07 5.3341e-23
3.629e-07 5.342e-23
3.632e-07 5.301e-23
3.6351e-07 5.2045e-23
3.6381e-07 5.1379e-23
3.6411e-07 5.2339e-23
3.6442e-07 5.47e-23
3.6472e-07 5.7433e-23
3.6502e-07 6.0096e-23
3.6533e-07 6.1833e-23
3.6563e-07 6.1369e-23
3.6594e-07 5.873e-23
3.6624e-07 5.5368e-23
3.6655e-07 5.3269e-23
3.6686e-07 5.3662e-23
3.6716e-07 5.5775e-23
3.6747e-07 5.7457e-23
3.6777e-07 5.7619e-23
3.6808e-07 5.6895e-23
3.6839e-07 5.5866e-23
3.687e-07 5.505e-23
3.69e-07 5.5159e-23
3.6931e-07 5.5748e-23
3.6962e-07 5.5938e-23
3.6993e-07 5.6084e-23
3.7024e-07 5.6161e-23
3.7054e-07 5.5211e-23
3.7085e-07 5.4248e-23
3.7116e-07 5.5167e-23
3.7147e-07 5.7876e-23
3.7178e-07 6.0988e-23
3.7209e-07 6.2907e-23
3.724e-07 6.3e-23
3.7271e-07 6.149e-23
3.7302e-07 5.9081e-23
3.7334e-07 5.7161e-23
3.7365e-07 5.6644e-23
3.7396e-07 5.6774e-23
3.7427e-07 5.5866e-23
3.7458e-07 5.4594e-23
3.749e-07 5.5447e-23
3.7521e-07 5.855e-23
3.7552e-07 6.1468e-23
3.7583e-07 6.3657e-23
3.7615e-07 6.6131e-23
3.7646e-07 6.6975e-23
3.7678e-07 6.4461e-23
3.7709e-07 6.0254e-23
3.7741e-07 5.676e-23
3.7772e-07 5.5168e-23
3.7804e-07 5.4784e-23
3.7835e-07 5.4715e-23
3.7867e-07 5.5354e-23
3.7898e-07 5.7084e-23
3.793e-07 6.0256e-23
3.7961e-07 6.3914e-23
3.7993e-07 6.5423e-23
3.8025e-07 6.4761e-23
3.8057e-07 6.3823e-23
3.8088e-07 6.2728e-23
3.812e-07 6.1456e-23
3.8152e-07 6.0772e-23
3.8184e-07 6.0604e-23
3.8216e-07 5.9683e-23
3.8247e-07 5.7963e-23
3.8279e-07 5.72e-23
3.8311e-07 5.7787e-23
3.8343e-07 5.9019e-23
3.8375e-07 6.0528e-23
3.8407e-07 6.1797e-23
3.8439e-07 6.3018e-23
3.8471e-07 6.404e-23
3.8503e-07 6.351e-23
3.8536e-07 6.2588e-23
3.8568e-07 6.2403e-23
3.86e-07 6.0925e-23
3.8632e-07 5.861e-23
3.8664e-07 5.831e-23
3.8697e-07 6.0062e-23
3.8729e-07 6.1819e-23
3.8761e-07 6.2754e-23
3.8793e-07 6.2737e-23
3.8826e-07 6.1752e-23
3.8858e-07 6.1363e-23
3.8891e-07 6.2816e-23
3.8923e-07 6.4199e-23
3.8956e-07 6.3696e-23
3.8988e-07 6.3074e-23
3.9021e-07 6.3339e-23
3.9053e-07 6.3002e-23
3.9086e-07 6.2301e-23
3.9118e-07 6.2757e-23
3.9151e-07 6.5088e-23
3.9184e-07 6.6896e-23
3.9216e-07 6.5696e-23
3.9249e-07 6.3825e-23
3.9282e-07 6.1829e-23
3.9315e-07 5.8938e-23
3.9347e-07 5.7691e-23
3.938e-07 5.8013e-23
3.9413e-07 5.7713e-23
3.9446e-07 5.729e-23
3.9479e-07 5.8484e-23
3.9512e-07 6.1626e-23
3.9545e-07 6.4911e-23
3.9578e-07 6.5898e-23
3.9611e-07 6.4047e-23
3.9644e-07 6.0871e-23
3.9677e-07 5.8752e-23
3.971e-07 5.8394e-23
3.9743e-07 5.9722e-23
3.9776e-07 6.3373e-23
3.9809e-07 6.7843e-23
3.9843e-07 6.9284e-23
3.9876e-07 6.5829e-23
3.9909e-07 6.1427e-23
3.9942e-07 6.1451e-23
3.9976e-07 6.5496e-23
4.0009e-07 6.9099e-23
4.0042e-07 6.9669e-23
4.0076e-07 6.8679e-23
4.0109e-07 6.7513e-23
4.0143e-07 6.5773e-23
4.0176e-07 6.3297e-23
4.021e-07 6.0315e-23
4.0243e-07 5.7726e-23
4.0277e-07 5.6348e-23
4.031e-07 5.6079e-23
4.0344e-07 5.7459e-23
4.0378e-07 6.0508e-23
4.0411e-07 6.2253e-23
4.0445e-07 6.2193e-23
4.0479e-07 6.3966e-23
4.0513e-07 6.6341e-23
4.0546e-07 6.4554e-23
4.058e-07 6.0438e-23
4.0614e-07 5.7907e-23
4.0648e-07 5.5439e-23
4.0682e-07 5.257e-23
4.0716e-07 5.1904e-23
4.075e-07 5.4714e-23
4.0784e-07 6.0739e-23
4.0818e-07 6.746e-23
4.0852e-07 7.0262e-23
4.0886e-07 6.7687e-23
4.092e-07 6.4958e-23
4.0954e-07 6.4043e-23
4.0988e-07 6.3992e-23
4.1023e-07 6.6426e-23
4.1057e-07 6.7996e-23
4.1091e-07 6.4797e-23
4.1125e-07 5.9588e-23
4.116e-07 5.6208e-23
4.1194e-07 5.5338e-23
4.1228e-07 5.6766e-23
4.1263e-07 6.1241e-23
4.1297e-07 6.8054e-23
4.1332e-07 7.3686e-23
4.1366e-07 7.2309e-23
4.1401e-07 6.4618e-23
4.1435e-07 5.9528e-23
4.147e-07 5.9706e-23
4.1504e-07 5.961e-23
4.1539e-07 5.6205e-23
4.1574e-07 5.2546e-23
4.1608e-07 5.1439e-23
4.1643e-07 5.1788e-23
4.1678e-07 5.293e-23
4.1712e-07 5.4812e-23
4.1747e-07 5.6319e-23
4.1782e-07 5.7433e-23
4.1817e-07 5.882e-23
4.1852e-07 5.9174e-23
4.1887e-07 5.8341e-23
4.1922e-07 5.9371e-23
4.1957e-07 6.1546e-23
4.1992e-07 6.2218e-23
4.2027e-07 6.2085e-23
4.2062e-07 6.2407e-23
4.2097e-07 6.2222e-23
4.2132e-07 6.0905e-23
4.2167e-07 6.1476e-23
4.2202e-07 6.3502e-23
4.2238e-07 6.3178e-23
4.2273e-07 6.1415e-23
4.2308e-07 6.1106e-23
4.2343e-07 6.2655e-23
4.2379e-07 6.4306e-23
4.2414e-07 6.5655e-23
4.2449e-07 6.6015e-23
4.2485e-07 6.2886e-23
4.252e-07 5.7757e-23
4.2556e-07 5.3409e-23
4.2591e-07 4.972e-23
4.2627e-07 4.7371e-23
4.2662e-07 4.8248e-23
4.2698e-07 5.3236e-23
4.2733e-07 5.9015e-23
4.2769e-07 6.1922e-23
4.2805e-07 6.2072e-23
4.2841e-07 5.9396e-23
4.2876e-07 5.4791e-23
4.2912e-07 5.0168e-23
4.2948e-07 4.671e-23
4.2984e-07 4.728e-23
4.302e-07 5.305e-23
4.3055e-07 5.957e-23
4.3091e-07 6.2035e-23
4.3127e-07 6.0607e-23
4.3163e-07 5.7047e-23
4.3199e-07 5.2105e-23
4.3235e-07 4.8201e-23
4.3271e-07 4.8215e-23
4.3307e-07 5.1918e-23
4.3344e-07 5.6479e-23
4.338e-07 5.8755e-23
4.3416e-07 5.8346e-23
4.3452e-07 6.0835e-23
4.3488e-07 6.7379e-23
4.3525e-07 6.911e-23
4.3561e-07 6.4426e-23
4.3597e-07 5.9895e-23
4.3634e-07 5.6674e-23
4.367e-07 5.2574e-23
4.3707e-07 4.7598e-23
4.3743e-07 4.3765e-23
4.3779e-07 4.2061e-23
4.3816e-07 4.4325e-23
4.3853e-07 5.3319e-23
4.3889e-07 6.4248e-23
4.3926e-07 6.872e-23
4.3962e-07 6.6059e-23
4.3999e-07 5.9558e-23
4.4036e-07 5.1716e-23
4.4073e-07 4.6346e-23
4.4109e-07 4.363e-23
4.4146e-07 4.0866e-23
4.4183e-07 3.9431e-23
4.422e-07 4.0533e-23
4.4257e-07 4.2659e-23
4.4294e-07 4.472e-23
4.4331e-07 4.6203e-23
4.4368e-07 4.7754e-23
4.4405e-07 5.1562e-23
4.4442e-07 5.8923e-23
4.4479e-07 6.4195e-23
4.4516e-07 6.1528e-23
4.4553e-07 5.5492e-23
4.459e-07 5.0707e-23
4.4627e-07 4.6439e-23
4.4664e-07 4.3956e-23
4.4702e-07 4.6102e-23
4.4739e-07 5.4243e-23
4.4776e-07 6.5194e-23
4.4814e-07 6.906e-23
4.4851e-07 6.2402e-23
4.4889e-07 5.3902e-23
4.4926e-07 4.8103e-23
4.4963e-07 4.432e-23
4.5001e-07 4.397e-23
4.5038e-07 4.6081e-23
4.5076e-07 4.6808e-23
4.5114e-07 4.5506e-23
4.5151e-07 4.519e-23
4.5189e-07 4.6717e-23
4.5227e-07 4.7934e-23
4.5264e-07 4.761e-23
4.5302e-07 4.6641e-23
4.534e-07 4.5098e-23
4.5378e-07 4.2011e-23
4.5416e-07 4.1089e-23
4.5454e-07 4.4031e-23
4.5491e-07 4.5723e-23
4.5529e-07 4.4596e-23
4.5567e-07 4.3654e-23
4.5605e-07 4.2429e-23
4.5643e-07 3.9276e-23
4.5682e-07 3.8348e-23
4.572e-07 4.3093e-23
4.5758e-07 4.9139e-23
4.5796e-07 5.1282e-23
4.5834e-07 4.9549e-23
4.5872e-07 4.5846e-23
4.5911e-07 4.2965e-23
4.5949e-07 4.3382e-23
4.5987e-07 4.6073e-23
4.6026e-07 4.8822e-23
4.6064e-07 4.8983e-23
4.6102e-07 4.6273e-23
4.6141e-07 4.2836e-23
4.6179e-07 4.0135e-23
4.6218e-07 4.0534e-23
4.6256e-07 4.6477e-23
4.6295e-07 5.4132e-23
4.6334e-07 5.5616e-23
4.6372e-07 5.1154e-23
4.6411e-07 4.6764e-23
4.645e-07 4.3814e-23
4.6489e-07 4.0098e-23
4.6527e-07 3.5195e-23
4.6566e-07 3.1627e-23
4.6605e-07 3.2403e-23
4.6644e-07 3.7631e-23
4.6683e-07 4.2757e-23
4.6722e-07 4.3811e-23
4.6761e-07 4.2817e-23
4.68e-07 4.107e-23
4.6839e-07 3.804e-23
4.6878e-07 3.5753e-23
4.6917e-07 3.4155e-23
4.6956e-07 3.2985e-23
4.6995e-07 3.3778e-23
4.7034e-07 3.4662e-23
4.7074e-07 3.3704e-23
4.7113e-07 3.288e-23
4.7152e-07 3.3875e-23
4.7192e-07 3.4973e-23
4.7231e-07 3.4719e-23
4.727e-07 3.4805e-23
4.731e-07 3.7604e-23
4.7349e-07 4.3875e-23
4.7389e-07 4.8952e-23
4.7428e-07 4.9329e-23
4.7468e-07 4.8124e-23
4.7507e-07 4.5895e-23
4.7547e-07 4.1992e-23
4.7587e-07 3.847e-23
4.7626e-07 3.6126e-23
4.7666e-07 3.4504e-23
4.7706e-07 3.3576e-23
4.7746e-07 3.3452e-23
4.7786e-07 3.3218e-23
4.7825e-07 3.2896e-23
4.7865e-07 3.3866e-23
4.7905e-07 3.7004e-23
4.7945e-07 4.066e-23
4.7985e-07 4.0869e-23
4.8025e-07 3.7964e-23
4.8065e-07 3.6244e-23
4.8105e-07 3.6478e-23
4.8146e-07 3.5946e-23
4.8186e-07 3.3215e-23
4.8226e-07 3.0056e-23
4.8266e-07 2.7552e-23
4.8306e-07 2.5447e-23
4.8347e-07 2.46e-23
4.8387e-07 2.5367e-23
4.8427e-07 2.6822e-23
4.8468e-07 2.7998e-23
4.8508e-07 2.8405e-23
4.8549e-07 2.865e-23
4.8589e-07 2.882e-23
4.863e-07 2.7978e-23
4.867e-07 2.6689e-23
4.8711e-07 2.6538e-23
4.8752e-07 2.8401e-23
4.8792e-07 3.3081e-23
4.8833e-07 3.9975e-23
4.8874e-07 4.4102e-23
4.8914e-07 4.2381e-23
4.8955e-07 3.8183e-23
4.8996e-07 3.4348e-23
4.9037e-07 3.0823e-23
4.9078e-07 2.7103e-23
4.9119e-07 2.4592e-23
4.916e-07 2.4927e-23
4.9201e-07 2.6018e-23
4.9242e-07 2.6015e-23
4.9283e-07 2.6846e-23
4.9324e-07 2.8996e-23
4.9365e-07 3.0938e-23
4.9406e-07 3.2997e-23
4.9448e-07 3.4592e-23
4.9489e-07 3.3985e-23
4.953e-07 3.2852e-23
4.9571e-07 3.3004e-23
4.9613e-07 3.3279e-23
4.9654e-07 3.2118e-23
4.9696e-07 2.89e-23
4.9737e-07 2.5154e-23
4.9779e-07 2.2461e-23
4.982e-07 2.0516e-23
4.9862e-07 1.9044e-23
4.9903e-07 1.773e-23
4.9945e-07 1.661e-23
4.9986e-07 1.6276e-23
5.0028e-07 1.6803e-23
5.007e-07 1.8004e-23
5.0112e-07 1.9178e-23
5.0154e-07 2.0258e-23
5.0195e-07 2.258e-23
5.0237e-07 2.5941e-23
5.0279e-07 2.7389e-23
5.0321e-07 2.5483e-23
5.0363e-07 2.4003e-23
5.0405e-07 2.6629e-23
5.0447e-07 3.1086e-23
5.0489e-07 3.2298e-23
5.0531e-07 2.8955e-23
5.0573e-07 2.5143e-23
5.0616e-07 2.3716e-23
5.0658e-07 2.2919e-23
5.07e-07 2.1417e-23
5.0742e-07 2.0284e-23
5.0785e-07 2.0589e-23
5.0827e-07 2.2105e-23
5.087e-07 2.4174e-23
5.0912e-07 2.6154e-23
5.0954e-07 2.7363e-23
5.0997e-07 2.7212e-23
5.104e-07 2.6126e-23
5.1082e-07 2.5381e-23
5.1125e-07 2.4733e-23
5.1167e-07 2.4069e-23
5.121e-07 2.4488e-23
5.1253e-07 2.4253e-23
5.1296e-07 2.2043e-23
5.1338e-07 1.9771e-23
5.1381e-07 1.8493e-23
5.1424e-07 1.7758e-23
5.1467e-07 1.6926e-23
5.151e-07 1.6108e-23
5.1553e-07 1.5698e-23
5.1596e-07 1.5386e-23
5.1639e-07 1.4757e-23
5.1682e-07 1.3939e-23
5.1725e-07 1.3738e-23
5.1768e-07 1.4873e-23
5.1811e-07 1.7444e-23
5.1855e-07 1.9371e-23
5.1898e-07 1.9382e-23
5.1941e-07 1.9293e-23
5.1984e-07 1.9236e-23
5.2028e-07 1.8292e-23
5.2071e-07 1.6858e-23
5.2115e-07 1.5623e-23
5.2158e-07 1.4992e-23
5.2202e-07 1.4822e-23
5.2245e-07 1.5099e-23
5.2289e-07 1.5443e-23
5.2332e-07 1.5231e-23
5.2376e-07 1.5371e-23
5.242e-07 1.7008e-23
5.2464e-07 2.0078e-23
5.2507e-07 2.283e-23
5.2551e-07 2.3303e-23
5.2595e-07 2.2582e-23
5.2639e-07 2.1732e-23
5.2683e-07 1.9888e-23
5.2727e-07 1.8327e-23
5.2771e-07 1.8234e-23
5.2815e-07 1.7872e-23
5.2859e-07 1.6626e-23
5.2903e-07 1.5532e-23
5.2947e-07 1.5041e-23
5.2991e-07 1.5466e-23
5.3035e-07 1.5996e-23
5.308e-07 1.5836e-23
5.3124e-07 1.5853e-23
5.3168e-07 1.6217e-23
5.3213e-07 1.654e-23
5.3257e-07 1.6506e-23
5.3301e-07 1.5608e-23
5.3346e-07 1.426e-23
5.339e-07 1.3265e-23
5.3435e-07 1.2404e-23
5.3479e-07 1.0939e-23
5.3524e-07 9.3561e-24
5.3569e-07 8.8936e-24
5.3613e-07 9.1509e-24
5.3658e-07 9.0565e-24
5.3703e-07 8.7689e-24
5.3748e-07 9.2075e-24
5.3793e-07 1.0835e-23
5.3837e-07 1.2454e-23
5.3882e-07 1.2984e-23
5.3927e-07 1.2525e-23
5.3972e-07 1.1067e-23
5.4017e-07 9.3946e-24
5.4062e-07 8.7847e-24
5.4107e-07 9.8469e-24
5.4153e-07 1.1995e-23
5.4198e-07 1.3851e-23
5.4243e-07 1.488e-23
5.4288e-07 1.5292e-23
5.4334e-07 1.4997e-23
5.4379e-07 1.3962e-23
5.4424e-07 1.3259e-23
5.447e-07 1.4109e-23
5.4515e-07 1.4977e-23
5.4561e-07 1.3908e-23
5.4606e-07 1.2132e-23
5.4652e-07 1.1289e-23
5.4697e-07 1.1928e-23
5.4743e-07 1.3329e-23
5.4788e-07 1.3814e-23
5.4834e-07 1.3517e-23
5.488e-07 1.3578e-23
5.4926e-07 1.3438e-23
5.4972e-07 1.2304e-23
5.5017e-07 1.111e-23
5.5063e-07 1.0294e-23
5.5109e-07 9.6321e-24
5.5155e-07 9.4454e-24
5.5201e-07 9.8297e-24
5.5247e-07 1.072e-23
5.5293e-07 1.1439e-23
5.5339e-07 1.1153e-23
5.5386e-07 1.0338e-23
5.5432e-07 9.4586e-24
5.5478e-07 8.3922e-24
5.5524e-07 7.4072e-24
5.5571e-07 6.7287e-24
5.5617e-07 6.5518e-24
5.5663e-07 6.6866e-24
5.571e-07 6.6598e-24
5.5756e-07 6.7058e-24
5.5803e-07 6.8135e-24
5.5849e-07 6.4179e-24
5.5896e-07 5.7233e-24
5.5943e-07 5.4066e-24
5.5989e-07 5.6351e-24
5.6036e-07 6.1189e-24
5.6083e-07 6.5894e-24
5.613e-07 7.0364e-24
5.6176e-07 7.3796e-24
5.6223e-07 7.7988e-24
5.627e-07 8.6944e-24
5.6317e-07 1.0202e-23
5.6364e-07 1.154e-23
5.6411e-07 1.2119e-23
5.6458e-07 1.2027e-23
5.6505e-07 1.0967e-23
5.6552e-07 9.1819e-24
5.66e-07 7.2638e-24
5.6647e-07 6.087e-24
5.6694e-07 6.2687e-24
5.6741e-07 7.2704e-24
5.6789e-07 8.2149e-24
5.6836e-07 8.373e-24
5.6883e-07 7.8962e-24
5.6931e-07 7.6917e-24
5.6978e-07 8.2293e-24
5.7026e-07 9.4497e-24
5.7074e-07 1.0451e-23
5.7121e-07 1.0442e-23
5.7169e-07 1.0133e-23
5.7216e-07 9.5601e-24
5.7264e-07 8.4168e-24
5.7312e-07 7.3609e-24
5.736e-07 6.4749e-24
5.7408e-07 5.6479e-24
5.7456e-07 5.146e-24
5.7503e-07 4.8208e-24
5.7551e-07 4.3063e-24
5.7599e-07 3.7091e-24
5.7647e-07 3.4293e-24
5.7696e-07 3.4713e-24
5.7744e-07 3.6917e-24
5.7792e-07 4.1711e-24
5.784e-07 5.0057e-24
5.7888e-07 5.7681e-24
5.7937e-07 5.9418e-24
5.7985e-07 5.7723e-24
5.8033e-07 5.386e-24
5.8082e-07 4.6582e-24
5.813e-07 4.0273e-24
5.8179e-07 3.7362e-24
5.8227e-07 3.5864e-24
5.8276e-07 3.6398e-24
5.8324e-07 3.8303e-24
5.8373e-07 4.0763e-24
5.8422e-07 4.6725e-24
5.8471e-07 5.5247e-24
5.8519e-07 6.0902e-24
5.8568e-07 6.0669e-24
5.8617e-07 5.7217e-24
5.8666e-07 5.4124e-24
5.8715e-07 5.0264e-24
5.8764e-07 4.5508e-24
5.8813e-07 4.268e-24
5.8862e-07 4.3653e-24
5.8911e-07 4.8514e-24
5.896e-07 5.5082e-24
5.9009e-07 6.1383e-24
5.9059e-07 6.3734e-24
5.9108e-07 6.4606e-24
5.9157e-07 7.1321e-24
5.9206e-07 7.8121e-24
5.9256e-07 7.8617e-24
5.9305e-07 7.3262e-24
5.9355e-07 6.0783e-24
5.9404e-07 4.7668e-24
5.9454e-07 3.9632e-24
5.9503e-07 3.3927e-24
5.9553e-07 3.0464e-24
5.9603e-07 3.0567e-24
5.9652e-07 3.1851e-24
5.9702e-07 3.309e-24
5.9752e-07 3.4153e-24
5.9802e-07 3.5078e-24
5.9852e-07 3.7486e-24
5.9902e-07 4.0973e-24
5.9952e-07 4.4607e-24
6.0002e-07 4.7869e-24
6.0052e-07 4.8573e-24
6.0102e-07 4.6983e-24
6.0152e-07 4.4407e-24
6.0202e-07 3.9825e-24
6.0252e-07 3.331e-24
6.0303e-07 2.6203e-24
6.0353e-07 2.0499e-24
6.0403e-07 1.7453e-24
6.0454e-07 1.6832e-24
6.0504e-07 1.8358e-24
6.0555e-07 1.9331e-24
6.0605e-07 1.8461e-24
6.0656e-07 1.821e-24
6.0706e-07 1.8926e-24
6.0757e-07 1.9994e-24
6.0808e-07 2.0691e-24
6.0858e-07 2.0331e-24
6.0909e-07 1.9872e-24
6.096e-07 1.9874e-24
6.1011e-07 2.053e-24
6.1062e-07 2.3872e-24
6.1113e-07 3.1493e-24
6.1164e-07 4.0734e-24
6.1215e-07 4.9227e-24
6.1266e-07 5.0755e-24
6.1317e-07 4.2621e-24
6.1368e-07 3.6073e-24
6.1419e-07 3.3878e-24
6.147e-07 3.1041e-24
6.1522e-07 3.0463e-24
6.1573e-07 3.3928e-24
6.1624e-07 3.8908e-24
6.1676e-07 4.1105e-24
6.1727e-07 3.8451e-24
6.1779e-07 3.3243e-24
6.183e-07 2.7304e-24
6.1882e-07 2.4048e-24
6.1933e-07 2.5232e-24
6.1985e-07 2.8959e-24
6.2037e-07 3.2599e-24
6.2089e-07 3.1767e-24
6.214e-07 2.6542e-24
6.2192e-07 2.2476e-24
6.2244e-07 2.1905e-24
6.2296e-07 2.2984e-24
6.2348e-07 2.3724e-24
6.24e-07 2.3291e-24
6.2452e-07 2.2624e-24
6.2504e-07 2.2124e-24
6.2556e-07 2.0834e-24
6.2609e-07 1.9132e-24
6.2661e-07 1.7755e-24
6.2713e-07 1.6343e-24
6.2765e-07 1.4778e-24
6.2818e-07 1.3851e-24
6.287e-07 1.3659e-24
6.2923e-07 1.3061e-24
6.2975e-07 1.1608e-24
6.3028e-07 1.0969e-24
6.308e-07 1.2006e-24
6.3133e-07 1.3414e-24
6.3185e-07 1.4062e-24
6.3238e-07 1.3507e-24
6.3291e-07 1.3027e-24
6.3344e-07 1.3974e-24
6.3397e-07 1.4858e-24
6.3449e-07 1.4397e-24
6.3502e-07 1.3723e-24
6.3555e-07 1.412e-24
6.3608e-07 1.5002e-24
6.3661e-07 1.5262e-24
6.3715e-07 1.5481e-24
6.3768e-07 1.5656e-24
6.3821e-07 1.4971e-24
6.3874e-07 1.4161e-24
6.3927e-07 1.4431e-24
6.3981e-07 1.5304e-24
6.4034e-07 1.5901e-24
6.4088e-07 1.6356e-24
6.4141e-07 1.7537e-24
6.4195e-07 2.0047e-24
6.4248e-07 2.1922e-24
6.4302e-07 2.1512e-24
6.4355e-07 1.9496e-24
6.4409e-07 1.6741e-24
6.4463e-07 1.5666e-24
6.4516e-07 1.6823e-24
6.457e-07 1.9228e-24
6.4624e-07 2.3261e-24
6.4678e-07 2.6658e-24
6.4732e-07 2.657e-24
6.4786e-07 2.2499e-24
6.484e-07 1.6528e-24
6.4894e-07 1.2885e-24
6.4948e-07 1.2339e-24
6.5003e-07 1.3099e-24
6.5057e-07 1.4013e-24
6.5111e-07 1.4203e-24
6.5165e-07 1.3294e-24
6.522e-07 1.1978e-24
6.5274e-07 1.0902e-24
6.5329e-07 9.9567e-25
6.5383e-07 9.4097e-25
6.5438e-07 9.6102e-25
6.5492e-07 9.9686e-25
6.5547e-07 1.007e-24
6.5601e-07 9.6912e-25
6.5656e-07 8.6013e-25
6.5711e-07 7.5659e-25
6.5766e-07 7.1016e-25
6.5821e-07 6.9813e-25
6.5876e-07 7.1525e-25
6.5931e-07 7.2992e-25
6.5986e-07 6.9278e-25
6.6041e-07 6.0937e-25
6.6096e-07 5.2991e-25
6.6151e-07 4.6564e-25
6.6206e-07 4.1921e-25
6.6261e-07 3.9786e-25
6.6317e-07 3.9495e-25
6.6372e-07 4.0664e-25
6.6427e-07 4.533e-25
6.6483e-07 5.3537e-25
6.6538e-07 6.2781e-25
6.6594e-07 6.5864e-25
6.6649e-07 4.5751e-25
6.6705e-07 1.4103e-25
6.676e-07 -0
6.6816e-07 -0
6.6872e-07 -0
6.6928e-07 -0
6.6983e-07 -0
6.7039e-07 -0
6.7095e-07 -0
6.7151e-07 -0
6.7207e-07 -0
6.7263e-07 -0
6.7319e-07 -0
6.7376e-07 -0
6.7432e-07 -0
6.7488e-07 -0
6.7544e-07 -0
6.7601e-07 -0
6.7657e-07 -0
6.7714e-07 -0
6.777e-07 -0
6.7827e-07 -0
6.7883e-07 -0
6.794e-07 -0
6.7996e-07 -0
6.8053e-07 -0
6.811e-07 -0
6.8167e-07 -0
6.8224e-07 -0
6.8281e-07 -0
6.8338e-07 -0
6.8395e-07 -0
6.8452e-07 -0
6.8509e-07 -0
6.8566e-07 -0
6.8623e-07 -0
6.868e-07 -0
6.8738e-07 -0
6.8795e-07 -0
6.8852e-07 -0
6.891e-07 -0
6.8967e-07 -0
6.9025e-07 -0
6.9082e-07 -0
6.914e-07 -0
6.9198e-07 -0
6.9255e-07 -0
6.9313e-07 -0
6.9371e-07 -0
6.9429e-07 -0
6.9487e-07 -0
6.9545e-07 -0
6.9603e-07 -0
6.9661e-07 -0
6.9719e-07 -0
6.9777e-07 -0
6.9835e-07 -0
6.9894e-07 -0
6.9952e-07 -0
7.001e-07 -0
7.0069e-07 -0
7.0127e-07 -0
7.0186e-07 -0
7.0244e-07 -0
7.0303e-07 -0
7.0361e-07 -0
7.042e-07 -0
7.0479e-07 -0
7.0538e-07 -0
7.0596e-07 -0
7.0655e-07 -0
7.0714e-07 -0
7.0773e-07 -0
7.0832e-07 -0
7.0891e-07 -0
7.0951e-07 -0
7.101e-07 -0
7.1069e-07 -0
7.1128e-07 -0
7.1188e-07 -0
7.1247e-07 -0
7.1306e-07 -0
7.1366e-07 -0
7.1425e-07 -0
7.1485e-07 -0
7.1545e-07 -0
7.1604e-07 -0
7.1664e-07 -0
7.1724e-07 -0
7.1784e-07 -0
7.1844e-07 -0
7.1904e-07 -0
7.1964e-07 -0
7.2024e-07 -0
7.2084e-07 -0
7.2144e-07 -0
7.2204e-07 -0
7.2264e-07 -0
7.2324e-07 -0
7.2385e-07 -0
7.2445e-07 -0
7.2506e-07 -0
7.2566e-07 -0
7.2627e-07 -0
7.2687e-07 -0
7.2748e-07 -0
7.2809e-07 -0
7.2869e-07 -0
7.293e-07 -0
7.2991e-07 -0
7.3052e-07 -0
7.3113e-07 -0
7.3174e-07 -0
7.3235e-07 -0
7.3296e-07 -0
7.3357e-07 -0
7.3418e-07 -0
7.348e-07 -0
7.3541e-07 -0
7.3602e-07 -0
7.3664e-07 -0
7.3725e-07 -0
7.3787e-07 -0
7.3848e-07 -0
7.391e-07 -0
7.3971e-07 -0
7.4033e-07 -0
7.4095e-07 -0
7.4157e-07 -0
7.4218e-07 -0
7.428e-07 -0
7.4342e-07 -0
7.4404e-07 -0
7.4466e-07 -0
7.4529e-07 -0
7.4591e-07 -0
7.4653e-07 -0
7.4715e-07 -0
7.4778e-07 -0
7.484e-07 -0
7.4902e-07 -0
7.4965e-07 -0
7.5027e-07 -0
7.509e-07 -0
7.5153e-07 -0
7.5215e-07 -0
7.5278e-07 -0
7.5341e-07 -0
7.5404e-07 -0
7.5467e-07 -0
7.553e-07 -0
7.5593e-07 -0
7.5656e-07 -0
7.5719e-07 -0
7.5782e-07 -0
7.5845e-07 -0
7.5908e-07 -0
7.5972e-07 -0
7.6035e-07 -0
7.6099e-07 -0
7.6162e-07 -0
7.6226e-07 -0
7.6289e-07 -0
7.6353e-07 -0
7.6417e-07 -0
7.648e-07 -0
7.6544e-07 -0
7.6608e-07 -0
7.6672e-07 -0
7.6736e-07 -0
7.68e-07 -0
7.6864e-07 -0
7.6928e-07 -0
7.6992e-07 -0
7.7056e-07 -0
7.7121e-07 -0
7.7185e-07 -0
7.7249e-07 -0
7.7314e-07 -0
7.7378e-07 -0
7.7443e-07 -0
7.7508e-07 -0
7.7572e-07 -0
7.7637e-07 -0
7.7702e-07 -0
7.7766e-07 -0
7.7831e-07 -0
7.7896e-07 -0
7.7961e-07 -0
7.8026e-07 -0
7.8091e-07 -0
7.8157e-07 -0
7.8222e-07 -0
7.8287e-07 -0
7.8352e-07 -0
7.8418e-07 -0
7.8483e-07 -0
7.8549e-07 -0
7.8614e-07 -0
7.868e-07 -0
7.8745e-07 -0
7.8811e-07 -0
7.8877e-07 -0
7.8943e-07 -0
7.9008e-07 -0
7.9074e-07 -0
7.914e-07 -0
7.9206e-07 -0
7.9272e-07 -0
7.9339e-07 -0
7.9405e-07 -0
7.9471e-07 -0
7.9537e-07 -0
7.9604e-07 -0
7.967e-07 -0
7.9736e-07 -0
7.9803e-07 -0
7.987e-07 -0
7.9936e-07 -0
8.0003e-07 -0
8.007e-07 -0
8.0136e-07 -0
8.0203e-07 -0
8.027e-07 -0
8.0337e-07 -0
8.0404e-07 -0
8.0471e-07 -0
8.0538e-07 -0
8.0606e-07 -0
8.0673e-07 -0
8.074e-07 -0
8.0807e-07 -0
8.0875e-07 -0
8.0942e-07 -0
8.101e-07 -0
8.1077e-07 -0
8.1145e-07 -0
8.1213e-07 -0
8.1281e-07 -0
8.1348e-07 -0
8.1416e-07 -0
8.1484e-07 -0
8.1552e-07 -0
8.162e-07 -0
8.1688e-07 -0
8.1756e-07 -0
8.1825e-07 -0
8.1893e-07 -0
8.1961e-07 -0
8.203e-07 -0
8.2098e-07 -0
8.2166e-07 -0
8.2235e-07 -0
8.2304e-07 -0
8.2372e-07 -0
8.2441e-07 -0
8.251e-07 -0
8.2579e-07 -0
8.2647e-07 -0
8.2716e-07 -0
8.2785e-07 -0
8.2854e-07 -0
8.2924e-07 -0
8.2993e-07 -0
8.3062e-07 -0
8.3131e-07 -0
8.3201e-07 -0
8.327e-07 -0
8.334e-07 -0
8.3409e-07 -0
8.3479e-07 -0
8.3548e-07 -0
8.3618e-07 -0
8.3688e-07 -0
8.3758e-07 -0
8.3827e-07 -0
8.3897e-07 -0
8.3967e-07 -0
8.4037e-07 -0
8.4107e-07 -0
8.4178e-07 -0
8.4248e-07 -0
8.4318e-07 -0
8.4388e-07 -0
8.4459e-07 -0
8.4529e-07 -0
8.46e-07 -0
8.467e-07 -0
8.4741e-07 -0
8.4812e-07 -0
8.4883e-07 -0
8.4953e-07 -0
8.5024e-07 -0
8.5095e-07 -0
8.5166e-07 -0
8.5237e-07 -0
8.5308e-07 -0
8.5379e-07 -0
8.5451e-07 -0
8.5522e-07 -0
8.5593e-07 -0
8.5665e-07 -0
8.5736e-07 -0
8.5808e-07 -0
8.5879e-07 -0
8.5951e-07 -0
8.6023e-07 -0
8.6094e-07 -0
8.6166e-07 -0
8.6238e-07 -0
8.631e-07 -0
8.6382e-07 -0
8.6454e-07 -0
8.6526e-07 -0
8.6598e-07 -0
8.6671e-07 -0
8.6743e-07 -0
8.6815e-07 -0
8.6888e-07 -0
8.696e-07 -0
8.7033e-07 -0
8.7105e-07 -0
8.7178e-07 -0
8.7251e-07 -0
8.7324e-07 -0
8.7396e-07 -0
8.7469e-07 -0
8.7542e-07 -0
8.7615e-07 -0
8.7688e-07 -0
8.7762e-07 -0
8.7835e-07 -0
8.7908e-07 -0
8.7981e-07 -0
8.8055e-07 -0
8.8128e-07 -0
8.8202e-07 -0
8.8275e-07 -0
8.8349e-07 -0
8.8423e-07 -0
8.8496e-07 -0
8.857e-07 -0
8.8644e-07 -0
8.8718e-07 -0
8.8792e-07 -0
8.8866e-07 -0
8.894e-07 -0
8.9015e-07 -0
8.9089e-07 -0
8.9163e-07 -0
8.9237e-07 -0
8.9312e-07 -0
8.9386e-07 -0
8.9461e-07 -0
8.9536e-07 -0
8.961e-07 -0
8.9685e-07 -0
8.976e-07 -0
8.9835e-07 -0
8.991e-07 -0
8.9985e-07 -0
9.006e-07 -0
9.0135e-07 -0
9.021e-07 -0
9.0285e-07 -0
9.0361e-07 -0
9.0436e-07 -0
9.0512e-07 -0
9.0587e-07 -0
9.0663e-07 -0
9.0738e-07 -0
9.0814e-07 -0
9.089e-07 -0
9.0966e-07 -0
9.1041e-07 -0
9.1117e-07 -0
9.1193e-07 -0
9.1269e-07 -0
9.1346e-07 -0
9.1422e-07 -0
9.1498e-07 -0
9.1574e-07 -0
9.1651e-07 -0
9.1727e-07 -0
9.1804e-07 -0
9.188e-07 -0
9.1957e-07 -0
9.2034e-07 -0
9.211e-07 -0
9.2187e-07 -0
9.2264e-07 -0
9.2341e-07 -0
9.2418e-07 -0
9.2495e-07 -0
9.2572e-07 -0
9.265e-07 -0
9.2727e-07 -0
9.2804e-07 -0
9.2882e-07 -0
9.2959e-07 -0
9.3037e-07 -0
9.3114e-07 -0
9.3192e-07 -0
9.327e-07 -0
9.3348e-07 -0
9.3426e-07 -0
9.3503e-07 -0
9.3581e-07 -0
9.366e-07 -0
9.3738e-07 -0
9.3816e-07 -0
9.3894e-07 -0
9.3972e-07 -0
9.4051e-07 -0
9.4129e-07 -0
9.4208e-07 -0
9.4286e-07 -0
9.4365e-07 -0
9.4444e-07 -0
9.4523e-07 -0
9.4601e-07 -0
9.468e-07 -0
9.4759e-07 -0
9.4838e-07 -0
9.4918e-07 -0
9.4997e-07 -0
9.5076e-07 -0
9.5155e-07 -0
9.5235e-07 -0
9.5314e-07 -0
9.5394e-07 -0
9.5473e-07 -0
9.5553e-07 -0
9.5633e-07 -0
9.5712e-07 -0
9.5792e-07 -0
9.5872e-07 -0
9.5952e-07 -0
9.6032e-07 -0
9.6112e-07 -0
9.6192e-07 -0
9.6273e-07 -0
9.6353e-07 -0
9.6433e-07 -0
9.6514e-07 -0
9.6594e-07 -0
9.6675e-07 -0
9.6756e-07 -0
9.6836e-07 -0
9.6917e-07 -0
9.6998e-07 -0
9.7079e-07 -0
9.716e-07 -0
9.7241e-07 -0
9.7322e-07 -0
9.7403e-07 -0
9.7484e-07 -0
9.7566e-07 -0
9.7647e-07 -0
9.7729e-07 -0
9.781e-07 -0
9.7892e-07 -0
9.7973e-07 -0
9.8055e-07 -0
9.8137e-07 -0
9.8219e-07 -0
9.8301e-07 -0
9.8383e-07 -0
9.8465e-07 -0
9.8547e-07 -0
9.8629e-07 -0
9.8711e-07 -0
9.8794e-07 -0
9.8876e-07 -0
9.8959e-07 -0
9.9041e-07 -0
9.9124e-07 -0
9.9207e-07 -0
9.9289e-07 -0
9.9372e-07 -0
9.9455e-07 -0
9.9538e-07 -0
9.9621e-07 -0
9.9704e-07 -0
9.9787e-07 -0
9.9871e-07 -0
9.9954e-07 -0
1.0004e-06 -0
1.0012e-06 -0
1.002e-06 -0
1.0029e-06 -0
1.0037e-06 -0
1.0046e-06 -0
1.0054e-06 -0
1.0062e-06 -0
1.0071e-06 -0
1.0079e-06 -0
1.0087e-06 -0
1.0096e-06 -0
1.0104e-06 -0
1.0113e-06 -0
1.0121e-06 -0
1.013e-06 -0
1.0138e-06 -0
1.0147e-06 -0
1.0155e-06 -0
1.0163e-06 -0
1.0172e-06 -0
1.018e-06 -0
1.0189e-06 -0
1.0197e-06 -0
1.0206e-06 -0
1.0214e-06 -0
1.0223e-06 -0
1.0232e-06 -0
1.024e-06 -0
1.0249e-06 -0
1.0257e-06 -0
1.0266e-06 -0
1.0274e-06 -0
1.0283e-06 -0
1.0291e-06 -0
1.03e-06 -0
