2.8e-07 5.6421e-24
2.8023e-07 5.7044e-24
2.8047e-07 5.7984e-24
2.807e-07 5.8781e-24
2.8094e-07 6.0399e-24
2.8117e-07 6.2124e-24
2.814e-07 6.2003e-24
2.8164e-07 6.0616e-24
2.8187e-07 5.9191e-24
2.8211e-07 5.7721e-24
2.8234e-07 5.7145e-24
2.8258e-07 5.7861e-24
2.8282e-07 5.9025e-24
2.8305e-07 6.0534e-24
2.8329e-07 6.4037e-24
2.8352e-07 6.86e-24
2.8376e-07 7.0458e-24
2.84e-07 7.0965e-24
2.8423e-07 7.1385e-24
2.8447e-07 7.2319e-24
2.8471e-07 7.3938e-24
2.8495e-07 7.5635e-24
2.8518e-07 7.678e-24
2.8542e-07 7.7844e-24
2.8566e-07 7.9117e-24
2.859e-07 8.0199e-24
2.8614e-07 8.0451e-24
2.8638e-07 7.994e-24
2.8661e-07 7.9106e-24
2.8685e-07 7.8318e-24
2.8709e-07 7.7971e-24
2.8733e-07 7.8743e-24
2.8757e-07 7.8975e-24
2.8781e-07 7.8773e-24
2.8805e-07 7.9182e-24
2.8829e-07 8.0263e-24
2.8853e-07 8.1918e-24
2.8877e-07 8.3649e-24
2.8901e-07 8.5034e-24
2.8926e-07 8.6827e-24
2.895e-07 8.9269e-24
2.8974e-07 9.1455e-24
2.8998e-07 9.2866e-24
2.9022e-07 9.3235e-24
2.9046e-07 9.3522e-24
2.9071e-07 9.5347e-24
2.9095e-07 9.895e-24
2.9119e-07 1.0254e-23
2.9143e-07 1.0467e-23
2.9168e-07 1.0568e-23
2.9192e-07 1.0693e-23
2.9216e-07 1.0878e-23
2.9241e-07 1.1004e-23
2.9265e-07 1.0892e-23
2.929e-07 1.0578e-23
2.9314e-07 1.0328e-23
2.9339e-07 1.0181e-23
2.9363e-07 1.0127e-23
2.9388e-07 1.017e-23
2.9412e-07 1.0391e-23
2.9437e-07 1.0816e-23
2.9461e-07 1.1231e-23
2.9486e-07 1.1361e-23
2.951e-07 1.1116e-23
2.9535e-07 1.0789e-23
2.956e-07 1.0646e-23
2.9584e-07 1.0824e-23
2.9609e-07 1.1322e-23
2.9634e-07 1.1887e-23
2.9658e-07 1.2479e-23
2.9683e-07 1.3254e-23
2.9708e-07 1.4084e-23
2.9733e-07 1.4605e-23
2.9757e-07 1.4599e-23
2.9782e-07 1.4175e-23
2.9807e-07 1.3678e-23
2.9832e-07 1.3341e-23
2.9857e-07 1.3219e-23
2.9882e-07 1.3303e-23
2.9907e-07 1.3527e-23
2.9932e-07 1.3761e-23
2.9957e-07 1.3901e-23
2.9982e-07 1.385e-23
3.0007e-07 1.3592e-23
3.0032e-07 1.3368e-23
3.0057e-07 1.3361e-23
3.0082e-07 1.341e-23
3.0107e-07 1.347e-23
3.0132e-07 1.3709e-23
3.0157e-07 1.4162e-23
3.0182e-07 1.475e-23
3.0207e-07 1.5311e-23
3.0233e-07 1.5646e-23
3.0258e-07 1.5899e-23
3.0283e-07 1.629e-23
3.0308e-07 1.6686e-23
3.0334e-07 1.6879e-23
3.0359e-07 1.686e-23
3.0384e-07 1.6758e-23
3.041e-07 1.6732e-23
3.0435e-07 1.6858e-23
3.046e-07 1.7093e-23
3.0486e-07 1.7313e-23
3.0511e-07 1.7347e-23
3.0537e-07 1.7163e-23
3.0562e-07 1.6893e-23
3.0588e-07 1.671e-23
3.0613e-07 1.6778e-23
3.0639e-07 1.7135e-23
3.0664e-07 1.7647e-23
3.069e-07 1.8163e-23
3.0715e-07 1.8485e-23
3.0741e-07 1.8472e-23
3.0767e-07 1.8201e-23
3.0792e-07 1.7868e-23
3.0818e-07 1.7703e-23
3.0844e-07 1.7951e-23
3.087e-07 1.8716e-23
3.0895e-07 1.9737e-23
3.0921e-07 2.0445e-23
3.0947e-07 2.0602e-23
3.0973e-07 2.0355e-23
3.0998e-07 1.999e-23
3.1024e-07 1.987e-23
3.105e-07 2.0131e-23
3.1076e-07 2.0531e-23
3.1102e-07 2.0866e-23
3.1128e-07 2.1173e-23
3.1154e-07 2.1388e-23
3.118e-07 2.1463e-23
3.1206e-07 2.1768e-23
3.1232e-07 2.2354e-23
3.1258e-07 2.2715e-23
3.1284e-07 2.2627e-23
3.131e-07 2.2283e-23
3.1336e-07 2.1866e-23
3.1362e-07 2.1557e-23
3.1389e-07 2.1539e-23
3.1415e-07 2.1832e-23
3.1441e-07 2.2496e-23
3.1467e-07 2.3408e-23
3.1494e-07 2.4082e-23
3.152e-07 2.4178e-23
3.1546e-07 2.3819e-23
3.1572e-07 2.3367e-23
3.1599e-07 2.3002e-23
3.1625e-07 2.2885e-23
3.1651e-07 2.32e-23
3.1678e-07 2.3833e-23
3.1704e-07 2.4661e-23
3.1731e-07 2.563e-23
3.1757e-07 2.648e-23
3.1784e-07 2.6884e-23
3.181e-07 2.6813e-23
3.1837e-07 2.6461e-23
3.1863e-07 2.5997e-23
3.189e-07 2.5665e-23
3.1917e-07 2.5593e-23
3.1943e-07 2.588e-23
3.197e-07 2.664e-23
3.1996e-07 2.7576e-23
3.2023e-07 2.8189e-23
3.205e-07 2.814e-23
3.2077e-07 2.7635e-23
3.2103e-07 2.7173e-23
3.213e-07 2.6969e-23
3.2157e-07 2.7057e-23
3.2184e-07 2.7476e-23
3.2211e-07 2.8111e-23
3.2238e-07 2.8764e-23
3.2264e-07 2.9272e-23
3.2291e-07 2.9532e-23
3.2318e-07 2.9525e-23
3.2345e-07 2.9384e-23
3.2372e-07 2.9168e-23
3.2399e-07 2.8908e-23
3.2426e-07 2.88e-23
3.2453e-07 2.9107e-23
3.248e-07 3.0009e-23
3.2507e-07 3.1329e-23
3.2535e-07 3.2175e-23
3.2562e-07 3.2199e-23
3.2589e-07 3.1972e-23
3.2616e-07 3.2087e-23
3.2643e-07 3.2355e-23
3.2671e-07 3.2218e-23
3.2698e-07 3.1808e-23
3.2725e-07 3.1807e-23
3.2752e-07 3.2396e-23
3.278e-07 3.2985e-23
3.2807e-07 3.3016e-23
3.2834e-07 3.2589e-23
3.2862e-07 3.2291e-23
3.2889e-07 3.2534e-23
3.2917e-07 3.326e-23
3.2944e-07 3.411e-23
3.2972e-07 3.4701e-23
3.2999e-07 3.4695e-23
3.3027e-07 3.4154e-23
3.3054e-07 3.3663e-23
3.3082e-07 3.3687e-23
3.3109e-07 3.4036e-23
3.3137e-07 3.4337e-23
3.3165e-07 3.4421e-23
3.3192e-07 3.4525e-23
3.322e-07 3.5263e-23
3.3248e-07 3.6997e-23
3.3275e-07 3.9114e-23
3.3303e-07 4.0321e-23
3.3331e-07 3.9887e-23
3.3359e-07 3.837e-23
3.3387e-07 3.6604e-23
3.3414e-07 3.5203e-23
3.3442e-07 3.5019e-23
3.347e-07 3.6502e-23
3.3498e-07 3.838e-23
3.3526e-07 3.8608e-23
3.3554e-07 3.7659e-23
3.3582e-07 3.7299e-23
3.361e-07 3.7966e-23
3.3638e-07 3.8865e-23
3.3666e-07 3.9335e-23
3.3694e-07 3.9151e-23
3.3722e-07 3.8269e-23
3.375e-07 3.722e-23
3.3779e-07 3.6889e-23
3.3807e-07 3.8181e-23
3.3835e-07 4.0893e-23
3.3863e-07 4.3263e-23
3.3891e-07 4.4187e-23
3.392e-07 4.3878e-23
3.3948e-07 4.2849e-23
3.3976e-07 4.2056e-23
3.4005e-07 4.2086e-23
3.4033e-07 4.2575e-23
3.4061e-07 4.3352e-23
3.409e-07 4.4556e-23
3.4118e-07 4.5626e-23
3.4147e-07 4.5676e-23
3.4175e-07 4.4569e-23
3.4204e-07 4.2761e-23
3.4232e-07 4.0856e-23
3.4261e-07 3.9434e-23
3.4289e-07 3.8859e-23
3.4318e-07 3.9458e-23
3.4347e-07 4.1003e-23
3.4375e-07 4.2438e-23
3.4404e-07 4.3024e-23
3.4433e-07 4.3096e-23
3.4461e-07 4.3397e-23
3.449e-07 4.3844e-23
3.4519e-07 4.397e-23
3.4548e-07 4.3902e-23
3.4577e-07 4.4422e-23
3.4605e-07 4.5759e-23
3.4634e-07 4.703e-23
3.4663e-07 4.7669e-23
3.4692e-07 4.7567e-23
3.4721e-07 4.6892e-23
3.475e-07 4.6391e-23
3.4779e-07 4.746e-23
3.4808e-07 5.0798e-23
3.4837e-07 5.3863e-23
3.4866e-07 5.3532e-23
3.4895e-07 5.0215e-23
3.4924e-07 4.6256e-23
3.4953e-07 4.3598e-23
3.4983e-07 4.2888e-23
3.5012e-07 4.3601e-23
3.5041e-07 4.5096e-23
3.507e-07 4.6766e-23
3.5099e-07 4.8164e-23
3.5129e-07 4.8583e-23
3.5158e-07 4.7497e-23
3.5187e-07 4.6505e-23
3.5217e-07 4.6796e-23
3.5246e-07 4.6499e-23
3.5276e-07 4.453e-23
3.5305e-07 4.3083e-23
3.5334e-07 4.383e-23
3.5364e-07 4.655e-23
3.5393e-07 5.0417e-23
3.5423e-07 5.4127e-23
3.5452e-07 5.5913e-23
3.5482e-07 5.5101e-23
3.5512e-07 5.2621e-23
3.5541e-07 4.9804e-23
3.5571e-07 4.7781e-23
3.5601e-07 4.7361e-23
3.563e-07 4.8668e-23
3.566e-07 5.1361e-23
3.569e-07 5.4754e-23
3.572e-07 5.7012e-23
3.5749e-07 5.678e-23
3.5779e-07 5.5051e-23
3.5809e-07 5.3153e-23
3.5839e-07 5.1322e-23
3.5869e-07 4.941e-23
3.5899e-07 4.8056e-23
3.5929e-07 4.7724e-23
3.5959e-07 4.7819e-23
3.5989e-07 4.8008e-23
3.6019e-07 4.9002e-23
3.6049e-07 5.1174e-23
3.6079e-07 5.3492e-23
3.6109e-07 5.4428e-23
3.6139e-07 5.3675e-23
3.6169e-07 5.2412e-23
3.6199e-07 5.1954e-23
3.623e-07 5.2394e-23
3.626e-07 5.2849e-23
3.629e-07 5.2914e-23
3.632e-07 5.2531e-23
3.6351e-07 5.1566e-23
3.6381e-07 5.0911e-23
3.6411e-07 5.1858e-23
3.6442e-07 5.4209e-23
3.6472e-07 5.7028e-23
3.6502e-07 5.9776e-23
3.6533e-07 6.145e-23
3.6563e-07 6.0865e-23
3.6594e-07 5.8194e-23
3.6624e-07 5.4819e-23
3.6655e-07 5.2685e-23
3.6686e-07 5.3029e-23
3.6716e-07 5.5091e-23
3.6747e-07 5.6723e-23
3.6777e-07 5.692e-23
3.6808e-07 5.6296e-23
3.6839e-07 5.5362e-23
3.687e-07 5.4594e-23
3.69e-07 5.4708e-23
3.6931e-07 5.5243e-23
3.6962e-07 5.5348e-23
3.6993e-07 5.5364e-23
3.7024e-07 5.517e-23
3.7054e-07 5.3891e-23
3.7085e-07 5.2792e-23
3.7116e-07 5.3828e-23
3.7147e-07 5.6578e-23
3.7178e-07 5.9765e-23
3.7209e-07 6.1933e-23
3.724e-07 6.2169e-23
3.7271e-07 6.0746e-23
3.7302e-07 5.8476e-23
3.7334e-07 5.6555e-23
3.7365e-07 5.5989e-23
3.7396e-07 5.6158e-23
3.7427e-07 5.5306e-23
3.7458e-07 5.4028e-23
3.749e-07 5.5167e-23
3.7521e-07 6.0034e-23
3.7552e-07 6.404e-23
3.7583e-07 6.5107e-23
3.7615e-07 6.6529e-23
3.7646e-07 6.7067e-23
3.7678e-07 6.4181e-23
3.7709e-07 5.9866e-23
3.7741e-07 5.6316e-23
3.7772e-07 5.4688e-23
3.7804e-07 5.4286e-23
3.7835e-07 5.4188e-23
3.7867e-07 5.4788e-23
3.7898e-07 5.6477e-23
3.793e-07 5.9645e-23
3.7961e-07 6.3391e-23
3.7993e-07 6.4925e-23
3.8025e-07 6.425e-23
3.8057e-07 6.3354e-23
3.8088e-07 6.2308e-23
3.812e-07 6.1063e-23
3.8152e-07 6.0343e-23
3.8184e-07 6.017e-23
3.8216e-07 5.9345e-23
3.8247e-07 5.7629e-23
3.8279e-07 5.6762e-23
3.8311e-07 5.7322e-23
3.8343e-07 5.8592e-23
3.8375e-07 6.0135e-23
3.8407e-07 6.1385e-23
3.8439e-07 6.2625e-23
3.8471e-07 6.3582e-23
3.8503e-07 6.3007e-23
3.8536e-07 6.2071e-23
3.8568e-07 6.188e-23
3.86e-07 6.0368e-23
3.8632e-07 5.8044e-23
3.8664e-07 5.7815e-23
3.8697e-07 5.9608e-23
3.8729e-07 6.1424e-23
3.8761e-07 6.2391e-23
3.8793e-07 6.2405e-23
3.8826e-07 6.142e-23
3.8858e-07 6.1049e-23
3.8891e-07 6.2628e-23
3.8923e-07 6.4007e-23
3.8956e-07 6.3437e-23
3.8988e-07 6.2845e-23
3.9021e-07 6.3139e-23
3.9053e-07 6.2787e-23
3.9086e-07 6.2069e-23
3.9118e-07 6.2536e-23
3.9151e-07 6.4784e-23
3.9184e-07 6.6686e-23
3.9216e-07 6.5659e-23
3.9249e-07 6.3747e-23
3.9282e-07 6.2068e-23
3.9315e-07 5.9192e-23
3.9347e-07 5.7584e-23
3.938e-07 5.7792e-23
3.9413e-07 5.735e-23
3.9446e-07 5.7071e-23
3.9479e-07 5.8437e-23
3.9512e-07 6.1563e-23
3.9545e-07 6.4723e-23
3.9578e-07 6.5805e-23
3.9611e-07 6.4352e-23
3.9644e-07 6.131e-23
3.9677e-07 5.8833e-23
3.971e-07 5.8465e-23
3.9743e-07 6.0223e-23
3.9776e-07 6.4034e-23
3.9809e-07 6.8135e-23
3.9843e-07 6.9244e-23
3.9876e-07 6.5642e-23
3.9909e-07 6.1311e-23
3.9942e-07 6.1428e-23
3.9976e-07 6.5504e-23
4.0009e-07 6.9078e-23
4.0042e-07 6.9606e-23
4.0076e-07 6.8592e-23
4.0109e-07 6.7394e-23
4.0143e-07 6.5637e-23
4.0176e-07 6.3153e-23
4.021e-07 6.0179e-23
4.0243e-07 5.7575e-23
4.0277e-07 5.6177e-23
4.031e-07 5.5896e-23
4.0344e-07 5.7258e-23
4.0378e-07 6.0296e-23
4.0411e-07 6.2048e-23
4.0445e-07 6.1984e-23
4.0479e-07 6.3728e-23
4.0513e-07 6.6106e-23
4.0546e-07 6.4348e-23
4.058e-07 6.0225e-23
4.0614e-07 5.7681e-23
4.0648e-07 5.5217e-23
4.0682e-07 5.2347e-23
4.0716e-07 5.1689e-23
4.075e-07 5.4522e-23
4.0784e-07 6.058e-23
4.0818e-07 6.7307e-23
4.0852e-07 7.002e-23
4.0886e-07 6.7434e-23
4.092e-07 6.4729e-23
4.0954e-07 6.3837e-23
4.0988e-07 6.3798e-23
4.1023e-07 6.624e-23
4.1057e-07 6.7736e-23
4.1091e-07 6.4467e-23
4.1125e-07 5.929e-23
4.116e-07 5.5958e-23
4.1194e-07 5.5111e-23
4.1228e-07 5.6519e-23
4.1263e-07 6.0966e-23
4.1297e-07 6.7804e-23
4.1332e-07 7.3463e-23
4.1366e-07 7.2065e-23
4.1401e-07 6.4394e-23
4.1435e-07 5.9338e-23
4.147e-07 5.9541e-23
4.1504e-07 5.9474e-23
4.1539e-07 5.6072e-23
4.1574e-07 5.2443e-23
4.1608e-07 5.1378e-23
4.1643e-07 5.176e-23
4.1678e-07 5.2892e-23
4.1712e-07 5.4717e-23
4.1747e-07 5.6188e-23
4.1782e-07 5.731e-23
4.1817e-07 5.8704e-23
4.1852e-07 5.9051e-23
4.1887e-07 5.8209e-23
4.1922e-07 5.9229e-23
4.1957e-07 6.1396e-23
4.1992e-07 6.2057e-23
4.2027e-07 6.1907e-23
4.2062e-07 6.2231e-23
4.2097e-07 6.2042e-23
4.2132e-07 6.0723e-23
4.2167e-07 6.1268e-23
4.2202e-07 6.3301e-23
4.2238e-07 6.3008e-23
4.2273e-07 6.1245e-23
4.2308e-07 6.0933e-23
4.2343e-07 6.2488e-23
4.2379e-07 6.4133e-23
4.2414e-07 6.5478e-23
4.2449e-07 6.584e-23
4.2485e-07 6.2731e-23
4.252e-07 5.7623e-23
4.2556e-07 5.3285e-23
4.2591e-07 4.961e-23
4.2627e-07 4.7257e-23
4.2662e-07 4.81e-23
4.2698e-07 5.3062e-23
4.2733e-07 5.8849e-23
4.2769e-07 6.1755e-23
4.2805e-07 6.1918e-23
4.2841e-07 5.9279e-23
4.2876e-07 5.4715e-23
4.2912e-07 5.0148e-23
4.2948e-07 4.6649e-23
4.2984e-07 4.7063e-23
4.302e-07 5.2828e-23
4.3055e-07 5.94e-23
4.3091e-07 6.183e-23
4.3127e-07 6.03e-23
4.3163e-07 5.6641e-23
4.3199e-07 5.1783e-23
4.3235e-07 4.8038e-23
4.3271e-07 4.8068e-23
4.3307e-07 5.172e-23
4.3344e-07 5.6254e-23
4.338e-07 5.8573e-23
4.3416e-07 5.8183e-23
4.3452e-07 6.0792e-23
4.3488e-07 6.7336e-23
4.3525e-07 6.8894e-23
4.3561e-07 6.4182e-23
4.3597e-07 5.9713e-23
4.3634e-07 5.6521e-23
4.367e-07 5.2454e-23
4.3707e-07 4.7528e-23
4.3743e-07 4.37e-23
4.3779e-07 4.1972e-23
4.3816e-07 4.4216e-23
4.3853e-07 5.3221e-23
4.3889e-07 6.4168e-23
4.3926e-07 6.8609e-23
4.3962e-07 6.5909e-23
4.3999e-07 5.9413e-23
4.4036e-07 5.1603e-23
4.4073e-07 4.6274e-23
4.4109e-07 4.3582e-23
4.4146e-07 4.0833e-23
4.4183e-07 3.9438e-23
4.422e-07 4.0568e-23
4.4257e-07 4.2738e-23
4.4294e-07 4.4832e-23
4.4331e-07 4.628e-23
4.4368e-07 4.7789e-23
4.4405e-07 5.1584e-23
4.4442e-07 5.8957e-23
4.4479e-07 6.4254e-23
4.4516e-07 6.1638e-23
4.4553e-07 5.5602e-23
4.459e-07 5.0754e-23
4.4627e-07 4.6417e-23
4.4664e-07 4.3945e-23
4.4702e-07 4.6138e-23
4.4739e-07 5.4291e-23
4.4776e-07 6.5204e-23
4.4814e-07 6.9001e-23
4.4851e-07 6.2325e-23
4.4889e-07 5.3826e-23
4.4926e-07 4.802e-23
4.4963e-07 4.4242e-23
4.5001e-07 4.3916e-23
4.5038e-07 4.6025e-23
4.5076e-07 4.673e-23
4.5114e-07 4.5434e-23
4.5151e-07 4.5104e-23
4.5189e-07 4.6618e-23
4.5227e-07 4.7847e-23
4.5264e-07 4.7549e-23
4.5302e-07 4.6578e-23
4.534e-07 4.4996e-23
4.5378e-07 4.1902e-23
4.5416e-07 4.1006e-23
4.5454e-07 4.3947e-23
4.5491e-07 4.5646e-23
4.5529e-07 4.4518e-23
4.5567e-07 4.3587e-23
4.5605e-07 4.2357e-23
4.5643e-07 3.9205e-23
4.5682e-07 3.8291e-23
4.572e-07 4.3015e-23
4.5758e-07 4.9058e-23
4.5796e-07 5.1222e-23
4.5834e-07 4.9497e-23
4.5872e-07 4.5802e-23
4.5911e-07 4.2922e-23
4.5949e-07 4.3336e-23
4.5987e-07 4.6037e-23
4.6026e-07 4.8788e-23
4.6064e-07 4.8926e-23
4.6102e-07 4.6216e-23
4.6141e-07 4.2791e-23
4.6179e-07 4.0095e-23
4.6218e-07 4.0495e-23
4.6256e-07 4.6425e-23
4.6295e-07 5.4069e-23
4.6334e-07 5.5567e-23
4.6372e-07 5.1117e-23
4.6411e-07 4.6722e-23
4.645e-07 4.3772e-23
4.6489e-07 4.0057e-23
4.6527e-07 3.5145e-23
4.6566e-07 3.158e-23
4.6605e-07 3.2345e-23
4.6644e-07 3.7548e-23
4.6683e-07 4.27e-23
4.6722e-07 4.3776e-23
4.6761e-07 4.2786e-23
4.68e-07 4.1034e-23
4.6839e-07 3.8011e-23
4.6878e-07 3.5743e-23
4.6917e-07 3.4163e-23
4.6956e-07 3.2998e-23
4.6995e-07 3.3785e-23
4.7034e-07 3.4656e-23
4.7074e-07 3.369e-23
4.7113e-07 3.2875e-23
4.7152e-07 3.3882e-23
4.7192e-07 3.4961e-23
4.7231e-07 3.4702e-23
4.727e-07 3.4787e-23
4.731e-07 3.7583e-23
4.7349e-07 4.3857e-23
4.7389e-07 4.8918e-23
4.7428e-07 4.9285e-23
4.7468e-07 4.8085e-23
4.7507e-07 4.5865e-23
4.7547e-07 4.1974e-23
4.7587e-07 3.8443e-23
4.7626e-07 3.6089e-23
4.7666e-07 3.4467e-23
4.7706e-07 3.3545e-23
4.7746e-07 3.3426e-23
4.7786e-07 3.3192e-23
4.7825e-07 3.287e-23
4.7865e-07 3.3836e-23
4.7905e-07 3.6981e-23
4.7945e-07 4.0643e-23
4.7985e-07 4.0844e-23
4.8025e-07 3.7942e-23
4.8065e-07 3.6224e-23
4.8105e-07 3.6458e-23
4.8146e-07 3.5921e-23
4.8186e-07 3.3193e-23
4.8226e-07 3.0045e-23
4.8266e-07 2.7546e-23
4.8306e-07 2.5439e-23
4.8347e-07 2.4581e-23
4.8387e-07 2.5339e-23
4.8427e-07 2.6795e-23
4.8468e-07 2.7983e-23
4.8508e-07 2.8406e-23
4.8549e-07 2.8629e-23
4.8589e-07 2.8788e-23
4.863e-07 2.7944e-23
4.867e-07 2.666e-23
4.8711e-07 2.6542e-23
4.8752e-07 2.8444e-23
4.8792e-07 3.3129e-23
4.8833e-07 3.9974e-23
4.8874e-07 4.4074e-23
4.8914e-07 4.2331e-23
4.8955e-07 3.8116e-23
4.8996e-07 3.4303e-23
4.9037e-07 3.0813e-23
4.9078e-07 2.7108e-23
4.9119e-07 2.4582e-23
4.916e-07 2.4887e-23
4.9201e-07 2.5985e-23
4.9242e-07 2.5991e-23
4.9283e-07 2.6834e-23
4.9324e-07 2.8979e-23
4.9365e-07 3.0917e-23
4.9406e-07 3.2984e-23
4.9448e-07 3.4571e-23
4.9489e-07 3.3954e-23
4.953e-07 3.2825e-23
4.9571e-07 3.2977e-23
4.9613e-07 3.3256e-23
4.9654e-07 3.2091e-23
4.9696e-07 2.8885e-23
4.9737e-07 2.5154e-23
4.9779e-07 2.2457e-23
4.982e-07 2.0507e-23
4.9862e-07 1.9033e-23
4.9903e-07 1.772e-23
4.9945e-07 1.6601e-23
4.9986e-07 1.6265e-23
5.0028e-07 1.6789e-23
5.007e-07 1.7989e-23
5.0112e-07 1.9173e-23
5.0154e-07 2.0267e-23
5.0195e-07 2.2606e-23
5.0237e-07 2.5979e-23
5.0279e-07 2.7422e-23
5.0321e-07 2.5531e-23
5.0363e-07 2.4069e-23
5.0405e-07 2.6721e-23
5.0447e-07 3.1188e-23
5.0489e-07 3.2339e-23
5.0531e-07 2.8961e-23
5.0573e-07 2.5168e-23
5.0616e-07 2.375e-23
5.0658e-07 2.2958e-23
5.07e-07 2.1466e-23
5.0742e-07 2.0318e-23
5.0785e-07 2.0616e-23
5.0827e-07 2.214e-23
5.087e-07 2.4209e-23
5.0912e-07 2.618e-23
5.0954e-07 2.7387e-23
5.0997e-07 2.7229e-23
5.104e-07 2.6132e-23
5.1082e-07 2.538e-23
5.1125e-07 2.4727e-23
5.1167e-07 2.406e-23
5.121e-07 2.4474e-23
5.1253e-07 2.426e-23
5.1296e-07 2.2054e-23
5.1338e-07 1.9765e-23
5.1381e-07 1.8482e-23
5.1424e-07 1.7746e-23
5.1467e-07 1.6913e-23
5.151e-07 1.6097e-23
5.1553e-07 1.5688e-23
5.1596e-07 1.5381e-23
5.1639e-07 1.4776e-23
5.1682e-07 1.3956e-23
5.1725e-07 1.3736e-23
5.1768e-07 1.4888e-23
5.1811e-07 1.7462e-23
5.1855e-07 1.9365e-23
5.1898e-07 1.9368e-23
5.1941e-07 1.9287e-23
5.1984e-07 1.9224e-23
5.2028e-07 1.8277e-23
5.2071e-07 1.6846e-23
5.2115e-07 1.5612e-23
5.2158e-07 1.4984e-23
5.2202e-07 1.4814e-23
5.2245e-07 1.5087e-23
5.2289e-07 1.5429e-23
5.2332e-07 1.5216e-23
5.2376e-07 1.5368e-23
5.242e-07 1.7007e-23
5.2464e-07 2.0062e-23
5.2507e-07 2.2811e-23
5.2551e-07 2.3302e-23
5.2595e-07 2.2577e-23
5.2639e-07 2.1741e-23
5.2683e-07 1.9902e-23
5.2727e-07 1.8326e-23
5.2771e-07 1.8234e-23
5.2815e-07 1.7847e-23
5.2859e-07 1.6602e-23
5.2903e-07 1.552e-23
5.2947e-07 1.5033e-23
5.2991e-07 1.5458e-23
5.3035e-07 1.5986e-23
5.308e-07 1.5825e-23
5.3124e-07 1.5842e-23
5.3168e-07 1.6205e-23
5.3213e-07 1.6527e-23
5.3257e-07 1.65e-23
5.3301e-07 1.56e-23
5.3346e-07 1.4242e-23
5.339e-07 1.3253e-23
5.3435e-07 1.2395e-23
5.3479e-07 1.0927e-23
5.3524e-07 9.345e-24
5.3569e-07 8.8876e-24
5.3613e-07 9.1459e-24
5.3658e-07 9.0556e-24
5.3703e-07 8.7656e-24
5.3748e-07 9.2052e-24
5.3793e-07 1.0831e-23
5.3837e-07 1.2446e-23
5.3882e-07 1.2978e-23
5.3927e-07 1.2531e-23
5.3972e-07 1.1082e-23
5.4017e-07 9.4012e-24
5.4062e-07 8.7887e-24
5.4107e-07 9.8644e-24
5.4153e-07 1.2024e-23
5.4198e-07 1.3866e-23
5.4243e-07 1.4883e-23
5.4288e-07 1.5294e-23
5.4334e-07 1.4999e-23
5.4379e-07 1.3962e-23
5.4424e-07 1.326e-23
5.447e-07 1.4107e-23
5.4515e-07 1.498e-23
5.4561e-07 1.3916e-23
5.4606e-07 1.2145e-23
5.4652e-07 1.1297e-23
5.4697e-07 1.1928e-23
5.4743e-07 1.3326e-23
5.4788e-07 1.3812e-23
5.4834e-07 1.3514e-23
5.488e-07 1.3574e-23
5.4926e-07 1.3434e-23
5.4972e-07 1.2301e-23
5.5017e-07 1.1106e-23
5.5063e-07 1.029e-23
5.5109e-07 9.628e-24
5.5155e-07 9.4409e-24
5.5201e-07 9.8237e-24
5.5247e-07 1.0711e-23
5.5293e-07 1.1431e-23
5.5339e-07 1.1144e-23
5.5386e-07 1.0331e-23
5.5432e-07 9.4531e-24
5.5478e-07 8.3884e-24
5.5524e-07 7.4068e-24
5.5571e-07 6.7286e-24
5.5617e-07 6.5487e-24
5.5663e-07 6.6839e-24
5.571e-07 6.6581e-24
5.5756e-07 6.7033e-24
5.5803e-07 6.8122e-24
5.5849e-07 6.4202e-24
5.5896e-07 5.7237e-24
5.5943e-07 5.4051e-24
5.5989e-07 5.6346e-24
5.6036e-07 6.1183e-24
5.6083e-07 6.5874e-24
5.613e-07 7.0324e-24
5.6176e-07 7.3757e-24
5.6223e-07 7.7977e-24
5.627e-07 8.6943e-24
5.6317e-07 1.0197e-23
5.6364e-07 1.1533e-23
5.6411e-07 1.2114e-23
5.6458e-07 1.2024e-23
5.6505e-07 1.0971e-23
5.6552e-07 9.1902e-24
5.66e-07 7.2644e-24
5.6647e-07 6.0828e-24
5.6694e-07 6.268e-24
5.6741e-07 7.2668e-24
5.6789e-07 8.2135e-24
5.6836e-07 8.3815e-24
5.6883e-07 7.9058e-24
5.6931e-07 7.6968e-24
5.6978e-07 8.2326e-24
5.7026e-07 9.4496e-24
5.7074e-07 1.045e-23
5.7121e-07 1.0439e-23
5.7169e-07 1.0134e-23
5.7216e-07 9.5565e-24
5.7264e-07 8.4129e-24
5.7312e-07 7.362e-24
5.736e-07 6.478e-24
5.7408e-07 5.6534e-24
5.7456e-07 5.1497e-24
5.7503e-07 4.8233e-24
5.7551e-07 4.3083e-24
5.7599e-07 3.7094e-24
5.7647e-07 3.4295e-24
5.7696e-07 3.4715e-24
5.7744e-07 3.6916e-24
5.7792e-07 4.1701e-24
5.784e-07 5.004e-24
5.7888e-07 5.7661e-24
5.7937e-07 5.9389e-24
5.7985e-07 5.7693e-24
5.8033e-07 5.3841e-24
5.8082e-07 4.6552e-24
5.813e-07 4.0245e-24
5.8179e-07 3.7342e-24
5.8227e-07 3.5845e-24
5.8276e-07 3.6383e-24
5.8324e-07 3.8288e-24
5.8373e-07 4.0741e-24
5.8422e-07 4.6676e-24
5.8471e-07 5.5187e-24
5.8519e-07 6.0874e-24
5.8568e-07 6.0684e-24
5.8617e-07 5.7234e-24
5.8666e-07 5.415e-24
5.8715e-07 5.0342e-24
5.8764e-07 4.5638e-24
5.8813e-07 4.2801e-24
5.8862e-07 4.3672e-24
5.8911e-07 4.8646e-24
5.896e-07 5.5297e-24
5.9009e-07 6.1634e-24
5.9059e-07 6.3951e-24
5.9108e-07 6.4839e-24
5.9157e-07 7.1495e-24
5.9206e-07 7.8336e-24
5.9256e-07 7.8908e-24
5.9305e-07 7.3463e-24
5.9355e-07 6.1044e-24
5.9404e-07 4.7991e-24
5.9454e-07 3.9805e-24
5.9503e-07 3.3898e-24
5.9553e-07 3.0484e-24
5.9603e-07 3.0648e-24
5.9652e-07 3.1919e-24
5.9702e-07 3.3133e-24
5.9752e-07 3.4203e-24
5.9802e-07 3.5131e-24
5.9852e-07 3.755e-24
5.9902e-07 4.1039e-24
5.9952e-07 4.4665e-24
6.0002e-07 4.7912e-24
6.0052e-07 4.8604e-24
6.0102e-07 4.701e-24
6.0152e-07 4.4431e-24
6.0202e-07 3.9829e-24
6.0252e-07 3.3289e-24
6.0303e-07 2.6167e-24
6.0353e-07 2.0468e-24
6.0403e-07 1.744e-24
6.0454e-07 1.6824e-24
6.0504e-07 1.8347e-24
6.0555e-07 1.9323e-24
6.0605e-07 1.8454e-24
6.0656e-07 1.8203e-24
6.0706e-07 1.8917e-24
6.0757e-07 1.9983e-24
6.0808e-07 2.0683e-24
6.0858e-07 2.0324e-24
6.0909e-07 1.9865e-24
6.096e-07 1.9867e-24
6.1011e-07 2.0524e-24
6.1062e-07 2.3865e-24
6.1113e-07 3.1483e-24
6.1164e-07 4.0712e-24
6.1215e-07 4.9187e-24
6.1266e-07 5.075e-24
6.1317e-07 4.2642e-24
6.1368e-07 3.6061e-24
6.1419e-07 3.385e-24
6.147e-07 3.1012e-24
6.1522e-07 3.0426e-24
6.1573e-07 3.3874e-24
6.1624e-07 3.8864e-24
6.1676e-07 4.1065e-24
6.1727e-07 3.8393e-24
6.1779e-07 3.3185e-24
6.183e-07 2.7272e-24
6.1882e-07 2.4031e-24
6.1933e-07 2.5217e-24
6.1985e-07 2.8944e-24
6.2037e-07 3.2577e-24
6.2089e-07 3.1747e-24
6.214e-07 2.6535e-24
6.2192e-07 2.2464e-24
6.2244e-07 2.1883e-24
6.2296e-07 2.2958e-24
6.2348e-07 2.3702e-24
6.24e-07 2.3273e-24
6.2452e-07 2.2604e-24
6.2504e-07 2.2101e-24
6.2556e-07 2.0809e-24
6.2609e-07 1.9111e-24
6.2661e-07 1.774e-24
6.2713e-07 1.6341e-24
6.2765e-07 1.4799e-24
6.2818e-07 1.3821e-24
6.287e-07 1.3633e-24
6.2923e-07 1.305e-24
6.2975e-07 1.1589e-24
6.3028e-07 1.0944e-24
6.308e-07 1.1992e-24
6.3133e-07 1.3399e-24
6.3185e-07 1.4042e-24
6.3238e-07 1.3491e-24
6.3291e-07 1.3014e-24
6.3344e-07 1.396e-24
6.3397e-07 1.4846e-24
6.3449e-07 1.4385e-24
6.3502e-07 1.3712e-24
6.3555e-07 1.4105e-24
6.3608e-07 1.4988e-24
6.3661e-07 1.5248e-24
6.3715e-07 1.5469e-24
6.3768e-07 1.5645e-24
6.3821e-07 1.4957e-24
6.3874e-07 1.4149e-24
6.3927e-07 1.4414e-24
6.3981e-07 1.5286e-24
6.4034e-07 1.5886e-24
6.4088e-07 1.6341e-24
6.4141e-07 1.7519e-24
6.4195e-07 2.003e-24
6.4248e-07 2.1902e-24
6.4302e-07 2.1491e-24
6.4355e-07 1.9479e-24
6.4409e-07 1.673e-24
6.4463e-07 1.5662e-24
6.4516e-07 1.6811e-24
6.457e-07 1.9195e-24
6.4624e-07 2.3233e-24
6.4678e-07 2.6657e-24
6.4732e-07 2.6602e-24
6.4786e-07 2.2522e-24
6.484e-07 1.6545e-24
6.4894e-07 1.2921e-24
6.4948e-07 1.2372e-24
6.5003e-07 1.3134e-24
6.5057e-07 1.402e-24
6.5111e-07 1.4225e-24
6.5165e-07 1.3335e-24
6.522e-07 1.1971e-24
6.5274e-07 1.089e-24
6.5329e-07 9.9655e-25
6.5383e-07 9.4125e-25
6.5438e-07 9.6047e-25
6.5492e-07 9.9762e-25
6.5547e-07 1.0085e-24
6.5601e-07 9.7075e-25
6.5656e-07 8.6065e-25
6.5711e-07 7.5558e-25
6.5766e-07 7.0903e-25
6.5821e-07 6.9799e-25
6.5876e-07 7.1554e-25
6.5931e-07 7.2986e-25
6.5986e-07 6.9243e-25
6.6041e-07 6.0869e-25
6.6096e-07 5.29e-25
6.6151e-07 4.6495e-25
6.6206e-07 4.1859e-25
6.6261e-07 3.9722e-25
6.6317e-07 3.9429e-25
6.6372e-07 4.0595e-25
6.6427e-07 4.5257e-25
6.6483e-07 5.3451e-25
6.6538e-07 6.2659e-25
6.6594e-07 6.5739e-25
6.6649e-07 4.5674e-25
6.6705e-07 1.4069e-25
6.676e-07 -0
6.6816e-07 -0
6.6872e-07 -0
6.6928e-07 -0
6.6983e-07 -0
6.7039e-07 -0
6.7095e-07 -0
6.7151e-07 -0
6.7207e-07 -0
6.7263e-07 -0
6.7319e-07 -0
6.7376e-07 -0
6.7432e-07 -0
6.7488e-07 -0
6.7544e-07 -0
6.7601e-07 -0
6.7657e-07 -0
6.7714e-07 -0
6.777e-07 -0
6.7827e-07 -0
6.7883e-07 -0
6.794e-07 -0
6.7996e-07 -0
6.8053e-07 -0
6.811e-07 -0
6.8167e-07 -0
6.8224e-07 -0
6.8281e-07 -0
6.8338e-07 -0
6.8395e-07 -0
6.8452e-07 -0
6.8509e-07 -0
6.8566e-07 -0
6.8623e-07 -0
6.868e-07 -0
6.8738e-07 -0
6.8795e-07 -0
6.8852e-07 -0
6.891e-07 -0
6.8967e-07 -0
6.9025e-07 -0
6.9082e-07 -0
6.914e-07 -0
6.9198e-07 -0
6.9255e-07 -0
6.9313e-07 -0
6.9371e-07 -0
6.9429e-07 -0
6.9487e-07 -0
6.9545e-07 -0
6.9603e-07 -0
6.9661e-07 -0
6.9719e-07 -0
6.9777e-07 -0
6.9835e-07 -0
6.9894e-07 -0
6.9952e-07 -0
7.001e-07 -0
7.0069e-07 -0
7.0127e-07 -0
7.0186e-07 -0
7.0244e-07 -0
7.0303e-07 -0
7.0361e-07 -0
7.042e-07 -0
7.0479e-07 -0
7.0538e-07 -0
7.0596e-07 -0
7.0655e-07 -0
7.0714e-07 -0
7.0773e-07 -0
7.0832e-07 -0
7.0891e-07 -0
7.0951e-07 -0
7.101e-07 -0
7.1069e-07 -0
7.1128e-07 -0
7.1188e-07 -0
7.1247e-07 -0
7.1306e-07 -0
7.1366e-07 -0
7.1425e-07 -0
7.1485e-07 -0
7.1545e-07 -0
7.1604e-07 -0
7.1664e-07 -0
7.1724e-07 -0
7.1784e-07 -0
7.1844e-07 -0
7.1904e-07 -0
7.1964e-07 -0
7.2024e-07 -0
7.2084e-07 -0
7.2144e-07 -0
7.2204e-07 -0
7.2264e-07 -0
7.2324e-07 -0
7.2385e-07 -0
7.2445e-07 -0
7.2506e-07 -0
7.2566e-07 -0
7.2627e-07 -0
7.2687e-07 -0
7.2748e-07 -0
7.2809e-07 -0
7.2869e-07 -0
7.293e-07 -0
7.2991e-07 -0
7.3052e-07 -0
7.3113e-07 -0
7.3174e-07 -0
7.3235e-07 -0
7.3296e-07 -0
7.3357e-07 -0
7.3418e-07 -0
7.348e-07 -0
7.3541e-07 -0
7.3602e-07 -0
7.3664e-07 -0
7.3725e-07 -0
7.3787e-07 -0
7.3848e-07 -0
7.391e-07 -0
7.3971e-07 -0
7.4033e-07 -0
7.4095e-07 -0
7.4157e-07 -0
7.4218e-07 -0
7.428e-07 -0
7.4342e-07 -0
7.4404e-07 -0
7.4466e-07 -0
7.4529e-07 -0
7.4591e-07 -0
7.4653e-07 -0
7.4715e-07 -0
7.4778e-07 -0
7.484e-07 -0
7.4902e-07 -0
7.4965e-07 -0
7.5027e-07 -0
7.509e-07 -0
7.5153e-07 -0
7.5215e-07 -0
7.5278e-07 -0
7.5341e-07 -0
7.5404e-07 -0
7.5467e-07 -0
7.553e-07 -0
7.5593e-07 -0
7.5656e-07 -0
7.5719e-07 -0
7.5782e-07 -0
7.5845e-07 -0
7.5908e-07 -0
7.5972e-07 -0
7.6035e-07 -0
7.6099e-07 -0
7.6162e-07 -0
7.6226e-07 -0
7.6289e-07 -0
7.6353e-07 -0
7.6417e-07 -0
7.648e-07 -0
7.6544e-07 -0
7.6608e-07 -0
7.6672e-07 -0
7.6736e-07 -0
7.68e-07 -0
7.6864e-07 -0
7.6928e-07 -0
7.6992e-07 -0
7.7056e-07 -0
7.7121e-07 -0
7.7185e-07 -0
7.7249e-07 -0
7.7314e-07 -0
7.7378e-07 -0
7.7443e-07 -0
7.7508e-07 -0
7.7572e-07 -0
7.7637e-07 -0
7.7702e-07 -0
7.7766e-07 -0
7.7831e-07 -0
7.7896e-07 -0
7.7961e-07 -0
7.8026e-07 -0
7.8091e-07 -0
7.8157e-07 -0
7.8222e-07 -0
7.8287e-07 -0
7.8352e-07 -0
7.8418e-07 -0
7.8483e-07 -0
7.8549e-07 -0
7.8614e-07 -0
7.868e-07 -0
7.8745e-07 -0
7.8811e-07 -0
7.8877e-07 -0
7.8943e-07 -0
7.9008e-07 -0
7.9074e-07 -0
7.914e-07 -0
7.9206e-07 -0
7.9272e-07 -0
7.9339e-07 -0
7.9405e-07 -0
7.9471e-07 -0
7.9537e-07 -0
7.9604e-07 -0
7.967e-07 -0
7.9736e-07 -0
7.9803e-07 -0
7.987e-07 -0
7.9936e-07 -0
8.0003e-07 -0
8.007e-07 -0
8.0136e-07 -0
8.0203e-07 -0
8.027e-07 -0
8.0337e-07 -0
8.0404e-07 -0
8.0471e-07 -0
8.0538e-07 -0
8.0606e-07 -0
8.0673e-07 -0
8.074e-07 -0
8.0807e-07 -0
8.0875e-07 -0
8.0942e-07 -0
8.101e-07 -0
8.1077e-07 -0
8.1145e-07 -0
8.1213e-07 -0
8.1281e-07 -0
8.1348e-07 -0
8.1416e-07 -0
8.1484e-07 -0
8.1552e-07 -0
8.162e-07 -0
8.1688e-07 -0
8.1756e-07 -0
8.1825e-07 -0
8.1893e-07 -0
8.1961e-07 -0
8.203e-07 -0
8.2098e-07 -0
8.2166e-07 -0
8.2235e-07 -0
8.2304e-07 -0
8.2372e-07 -0
8.2441e-07 -0
8.251e-07 -0
8.2579e-07 -0
8.2647e-07 -0
8.2716e-07 -0
8.2785e-07 -0
8.2854e-07 -0
8.2924e-07 -0
8.2993e-07 -0
8.3062e-07 -0
8.3131e-07 -0
8.3201e-07 -0
8.327e-07 -0
8.334e-07 -0
8.3409e-07 -0
8.3479e-07 -0
8.3548e-07 -0
8.3618e-07 -0
8.3688e-07 -0
8.3758e-07 -0
8.3827e-07 -0
8.3897e-07 -0
8.3967e-07 -0
8.4037e-07 -0
8.4107e-07 -0
8.4178e-07 -0
8.4248e-07 -0
8.4318e-07 -0
8.4388e-07 -0
8.4459e-07 -0
8.4529e-07 -0
8.46e-07 -0
8.467e-07 -0
8.4741e-07 -0
8.4812e-07 -0
8.4883e-07 -0
8.4953e-07 -0
8.5024e-07 -0
8.5095e-07 -0
8.5166e-07 -0
8.5237e-07 -0
8.5308e-07 -0
8.5379e-07 -0
8.5451e-07 -0
8.5522e-07 -0
8.5593e-07 -0
8.5665e-07 -0
8.5736e-07 -0
8.5808e-07 -0
8.5879e-07 -0
8.5951e-07 -0
8.6023e-07 -0
8.6094e-07 -0
8.6166e-07 -0
8.6238e-07 -0
8.631e-07 -0
8.6382e-07 -0
8.6454e-07 -0
8.6526e-07 -0
8.6598e-07 -0
8.6671e-07 -0
8.6743e-07 -0
8.6815e-07 -0
8.6888e-07 -0
8.696e-07 -0
8.7033e-07 -0
8.7105e-07 -0
8.7178e-07 -0
8.7251e-07 -0
8.7324e-07 -0
8.7396e-07 -0
8.7469e-07 -0
8.7542e-07 -0
8.7615e-07 -0
8.7688e-07 -0
8.7762e-07 -0
8.7835e-07 -0
8.7908e-07 -0
8.7981e-07 -0
8.8055e-07 -0
8.8128e-07 -0
8.8202e-07 -0
8.8275e-07 -0
8.8349e-07 -0
8.8423e-07 -0
8.8496e-07 -0
8.857e-07 -0
8.8644e-07 -0
8.8718e-07 -0
8.8792e-07 -0
8.8866e-07 -0
8.894e-07 -0
8.9015e-07 -0
8.9089e-07 -0
8.9163e-07 -0
8.9237e-07 -0
8.9312e-07 -0
8.9386e-07 -0
8.9461e-07 -0
8.9536e-07 -0
8.961e-07 -0
8.9685e-07 -0
8.976e-07 -0
8.9835e-07 -0
8.991e-07 -0
8.9985e-07 -0
9.006e-07 -0
9.0135e-07 -0
9.021e-07 -0
9.0285e-07 -0
9.0361e-07 -0
9.0436e-07 -0
9.0512e-07 -0
9.0587e-07 -0
9.0663e-07 -0
9.0738e-07 -0
9.0814e-07 -0
9.089e-07 -0
9.0966e-07 -0
9.1041e-07 -0
9.1117e-07 -0
9.1193e-07 -0
9.1269e-07 -0
9.1346e-07 -0
9.1422e-07 -0
9.1498e-07 -0
9.1574e-07 -0
9.1651e-07 -0
9.1727e-07 -0
9.1804e-07 -0
9.188e-07 -0
9.1957e-07 -0
9.2034e-07 -0
9.211e-07 -0
9.2187e-07 -0
9.2264e-07 -0
9.2341e-07 -0
9.2418e-07 -0
9.2495e-07 -0
9.2572e-07 -0
9.265e-07 -0
9.2727e-07 -0
9.2804e-07 -0
9.2882e-07 -0
9.2959e-07 -0
9.3037e-07 -0
9.3114e-07 -0
9.3192e-07 -0
9.327e-07 -0
9.3348e-07 -0
9.3426e-07 -0
9.3503e-07 -0
9.3581e-07 -0
9.366e-07 -0
9.3738e-07 -0
9.3816e-07 -0
9.3894e-07 -0
9.3972e-07 -0
9.4051e-07 -0
9.4129e-07 -0
9.4208e-07 -0
9.4286e-07 -0
9.4365e-07 -0
9.4444e-07 -0
9.4523e-07 -0
9.4601e-07 -0
9.468e-07 -0
9.4759e-07 -0
9.4838e-07 -0
9.4918e-07 -0
9.4997e-07 -0
9.5076e-07 -0
9.5155e-07 -0
9.5235e-07 -0
9.5314e-07 -0
9.5394e-07 -0
9.5473e-07 -0
9.5553e-07 -0
9.5633e-07 -0
9.5712e-07 -0
9.5792e-07 -0
9.5872e-07 -0
9.5952e-07 -0
9.6032e-07 -0
9.6112e-07 -0
9.6192e-07 -0
9.6273e-07 -0
9.6353e-07 -0
9.6433e-07 -0
9.6514e-07 -0
9.6594e-07 -0
9.6675e-07 -0
9.6756e-07 -0
9.6836e-07 -0
9.6917e-07 -0
9.6998e-07 -0
9.7079e-07 -0
9.716e-07 -0
9.7241e-07 -0
9.7322e-07 -0
9.7403e-07 -0
9.7484e-07 -0
9.7566e-07 -0
9.7647e-07 -0
9.7729e-07 -0
9.781e-07 -0
9.7892e-07 -0
9.7973e-07 -0
9.8055e-07 -0
9.8137e-07 -0
9.8219e-07 -0
9.8301e-07 -0
9.8383e-07 -0
9.8465e-07 -0
9.8547e-07 -0
9.8629e-07 -0
9.8711e-07 -0
9.8794e-07 -0
9.8876e-07 -0
9.8959e-07 -0
9.9041e-07 -0
9.9124e-07 -0
9.9207e-07 -0
9.9289e-07 -0
9.9372e-07 -0
9.9455e-07 -0
9.9538e-07 -0
9.9621e-07 -0
9.9704e-07 -0
9.9787e-07 -0
9.9871e-07 -0
9.9954e-07 -0
1.0004e-06 -0
1.0012e-06 -0
1.002e-06 -0
1.0029e-06 -0
1.0037e-06 -0
1.0046e-06 -0
1.0054e-06 -0
1.0062e-06 -0
1.0071e-06 -0
1.0079e-06 -0
1.0087e-06 -0
1.0096e-06 -0
1.0104e-06 -0
1.0113e-06 -0
1.0121e-06 -0
1.013e-06 -0
1.0138e-06 -0
1.0147e-06 -0
1.0155e-06 -0
1.0163e-06 -0
1.0172e-06 -0
1.018e-06 -0
1.0189e-06 -0
1.0197e-06 -0
1.0206e-06 -0
1.0214e-06 -0
1.0223e-06 -0
1.0232e-06 -0
1.024e-06 -0
1.0249e-06 -0
1.0257e-06 -0
1.0266e-06 -0
1.0274e-06 -0
1.0283e-06 -0
1.0291e-06 -0
1.03e-06 -0
