2.8e-07 5.6886e-24
2.8023e-07 5.6776e-24
2.8047e-07 5.746e-24
2.807e-07 5.8375e-24
2.8094e-07 5.9525e-24
2.8117e-07 6.1194e-24
2.814e-07 6.1988e-24
2.8164e-07 6.1303e-24
2.8187e-07 5.9851e-24
2.8211e-07 5.8239e-24
2.8234e-07 5.723e-24
2.8258e-07 5.7482e-24
2.8282e-07 5.8625e-24
2.8305e-07 6.0435e-24
2.8329e-07 6.3076e-24
2.8352e-07 6.6616e-24
2.8376e-07 6.9325e-24
2.84e-07 7.0577e-24
2.8423e-07 7.122e-24
2.8447e-07 7.2042e-24
2.8471e-07 7.3387e-24
2.8495e-07 7.4911e-24
2.8518e-07 7.6175e-24
2.8542e-07 7.7331e-24
2.8566e-07 7.8609e-24
2.859e-07 7.9816e-24
2.8614e-07 8.0387e-24
2.8638e-07 8.0215e-24
2.8661e-07 7.95e-24
2.8685e-07 7.8604e-24
2.8709e-07 7.8009e-24
2.8733e-07 7.8303e-24
2.8757e-07 7.8852e-24
2.8781e-07 7.8869e-24
2.8805e-07 7.9003e-24
2.8829e-07 7.9833e-24
2.8853e-07 8.1301e-24
2.8877e-07 8.2999e-24
2.8901e-07 8.4496e-24
2.8926e-07 8.6053e-24
2.895e-07 8.8227e-24
2.8974e-07 9.0654e-24
2.8998e-07 9.2493e-24
2.9022e-07 9.3201e-24
2.9046e-07 9.3418e-24
2.9071e-07 9.4646e-24
2.9095e-07 9.7642e-24
2.9119e-07 1.0128e-23
2.9143e-07 1.0397e-23
2.9168e-07 1.0538e-23
2.9192e-07 1.0657e-23
2.9216e-07 1.0837e-23
2.9241e-07 1.099e-23
2.9265e-07 1.094e-23
2.929e-07 1.0673e-23
2.9314e-07 1.0399e-23
2.9339e-07 1.0221e-23
2.9363e-07 1.0138e-23
2.9388e-07 1.0159e-23
2.9412e-07 1.0345e-23
2.9437e-07 1.0733e-23
2.9461e-07 1.116e-23
2.9486e-07 1.1363e-23
2.951e-07 1.1213e-23
2.9535e-07 1.0882e-23
2.956e-07 1.0668e-23
2.9584e-07 1.0766e-23
2.9609e-07 1.1213e-23
2.9634e-07 1.1817e-23
2.9658e-07 1.2447e-23
2.9683e-07 1.3148e-23
2.9708e-07 1.3906e-23
2.9733e-07 1.4503e-23
2.9757e-07 1.4632e-23
2.9782e-07 1.4252e-23
2.9807e-07 1.3712e-23
2.9832e-07 1.3349e-23
2.9857e-07 1.322e-23
2.9882e-07 1.3275e-23
2.9907e-07 1.3481e-23
2.9932e-07 1.3725e-23
2.9957e-07 1.3887e-23
2.9982e-07 1.3857e-23
3.0007e-07 1.3611e-23
3.0032e-07 1.3378e-23
3.0057e-07 1.3352e-23
3.0082e-07 1.3407e-23
3.0107e-07 1.3458e-23
3.0132e-07 1.3675e-23
3.0157e-07 1.414e-23
3.0182e-07 1.4734e-23
3.0207e-07 1.5272e-23
3.0233e-07 1.5613e-23
3.0258e-07 1.5852e-23
3.0283e-07 1.6217e-23
3.0308e-07 1.6642e-23
3.0334e-07 1.6872e-23
3.0359e-07 1.6861e-23
3.0384e-07 1.6759e-23
3.041e-07 1.6727e-23
3.0435e-07 1.6841e-23
3.046e-07 1.7067e-23
3.0486e-07 1.7294e-23
3.0511e-07 1.735e-23
3.0537e-07 1.717e-23
3.0562e-07 1.6891e-23
3.0588e-07 1.6708e-23
3.0613e-07 1.677e-23
3.0639e-07 1.7106e-23
3.0664e-07 1.7601e-23
3.069e-07 1.8116e-23
3.0715e-07 1.8466e-23
3.0741e-07 1.8481e-23
3.0767e-07 1.821e-23
3.0792e-07 1.787e-23
3.0818e-07 1.7702e-23
3.0844e-07 1.7952e-23
3.087e-07 1.874e-23
3.0895e-07 1.9752e-23
3.0921e-07 2.0439e-23
3.0947e-07 2.0605e-23
3.0973e-07 2.0369e-23
3.0998e-07 2.0003e-23
3.1024e-07 1.986e-23
3.105e-07 2.0091e-23
3.1076e-07 2.0499e-23
3.1102e-07 2.0857e-23
3.1128e-07 2.1176e-23
3.1154e-07 2.139e-23
3.118e-07 2.1461e-23
3.1206e-07 2.1752e-23
3.1232e-07 2.2332e-23
3.1258e-07 2.2709e-23
3.1284e-07 2.2634e-23
3.131e-07 2.2285e-23
3.1336e-07 2.1863e-23
3.1362e-07 2.1556e-23
3.1389e-07 2.1536e-23
3.1415e-07 2.1831e-23
3.1441e-07 2.248e-23
3.1467e-07 2.3371e-23
3.1494e-07 2.4066e-23
3.152e-07 2.4163e-23
3.1546e-07 2.3794e-23
3.1572e-07 2.3359e-23
3.1599e-07 2.3012e-23
3.1625e-07 2.2879e-23
3.1651e-07 2.3159e-23
3.1678e-07 2.3793e-23
3.1704e-07 2.4636e-23
3.1731e-07 2.563e-23
3.1757e-07 2.6505e-23
3.1784e-07 2.6892e-23
3.181e-07 2.6817e-23
3.1837e-07 2.6481e-23
3.1863e-07 2.6019e-23
3.189e-07 2.5673e-23
3.1917e-07 2.5597e-23
3.1943e-07 2.588e-23
3.197e-07 2.661e-23
3.1996e-07 2.7541e-23
3.2023e-07 2.8174e-23
3.205e-07 2.814e-23
3.2077e-07 2.7628e-23
3.2103e-07 2.7167e-23
3.213e-07 2.6966e-23
3.2157e-07 2.7053e-23
3.2184e-07 2.7483e-23
3.2211e-07 2.8131e-23
3.2238e-07 2.878e-23
3.2264e-07 2.9282e-23
3.2291e-07 2.9533e-23
3.2318e-07 2.953e-23
3.2345e-07 2.9392e-23
3.2372e-07 2.9178e-23
3.2399e-07 2.8914e-23
3.2426e-07 2.8801e-23
3.2453e-07 2.9118e-23
3.248e-07 3.0019e-23
3.2507e-07 3.1282e-23
3.2535e-07 3.2146e-23
3.2562e-07 3.2214e-23
3.2589e-07 3.1981e-23
3.2616e-07 3.2083e-23
3.2643e-07 3.2353e-23
3.2671e-07 3.2217e-23
3.2698e-07 3.1805e-23
3.2725e-07 3.181e-23
3.2752e-07 3.241e-23
3.278e-07 3.2997e-23
3.2807e-07 3.3019e-23
3.2834e-07 3.26e-23
3.2862e-07 3.2293e-23
3.2889e-07 3.251e-23
3.2917e-07 3.3225e-23
3.2944e-07 3.4089e-23
3.2972e-07 3.4696e-23
3.2999e-07 3.4677e-23
3.3027e-07 3.4118e-23
3.3054e-07 3.3652e-23
3.3082e-07 3.369e-23
3.3109e-07 3.4039e-23
3.3137e-07 3.4337e-23
3.3165e-07 3.4421e-23
3.3192e-07 3.4525e-23
3.322e-07 3.527e-23
3.3248e-07 3.7008e-23
3.3275e-07 3.9121e-23
3.3303e-07 4.0321e-23
3.3331e-07 3.9864e-23
3.3359e-07 3.8348e-23
3.3387e-07 3.6623e-23
3.3414e-07 3.5234e-23
3.3442e-07 3.5021e-23
3.347e-07 3.6517e-23
3.3498e-07 3.8392e-23
3.3526e-07 3.8611e-23
3.3554e-07 3.7641e-23
3.3582e-07 3.731e-23
3.361e-07 3.7978e-23
3.3638e-07 3.8865e-23
3.3666e-07 3.9338e-23
3.3694e-07 3.9157e-23
3.3722e-07 3.8305e-23
3.375e-07 3.7252e-23
3.3779e-07 3.6887e-23
3.3807e-07 3.815e-23
3.3835e-07 4.085e-23
3.3863e-07 4.3241e-23
3.3891e-07 4.4183e-23
3.392e-07 4.3877e-23
3.3948e-07 4.2869e-23
3.3976e-07 4.2071e-23
3.4005e-07 4.2089e-23
3.4033e-07 4.2587e-23
3.4061e-07 4.3371e-23
3.409e-07 4.4584e-23
3.4118e-07 4.5642e-23
3.4147e-07 4.569e-23
3.4175e-07 4.4615e-23
3.4204e-07 4.2782e-23
3.4232e-07 4.0852e-23
3.4261e-07 3.945e-23
3.4289e-07 3.8869e-23
3.4318e-07 3.9487e-23
3.4347e-07 4.1078e-23
3.4375e-07 4.2499e-23
3.4404e-07 4.3033e-23
3.4433e-07 4.3087e-23
3.4461e-07 4.3369e-23
3.449e-07 4.3821e-23
3.4519e-07 4.3969e-23
3.4548e-07 4.3906e-23
3.4577e-07 4.4442e-23
3.4605e-07 4.5765e-23
3.4634e-07 4.7018e-23
3.4663e-07 4.7664e-23
3.4692e-07 4.7557e-23
3.4721e-07 4.687e-23
3.475e-07 4.6381e-23
3.4779e-07 4.7429e-23
3.4808e-07 5.0748e-23
3.4837e-07 5.3844e-23
3.4866e-07 5.3499e-23
3.4895e-07 5.0171e-23
3.4924e-07 4.6255e-23
3.4953e-07 4.3625e-23
3.4983e-07 4.2882e-23
3.5012e-07 4.356e-23
3.5041e-07 4.5072e-23
3.507e-07 4.6784e-23
3.5099e-07 4.8191e-23
3.5129e-07 4.8584e-23
3.5158e-07 4.7496e-23
3.5187e-07 4.6521e-23
3.5217e-07 4.6823e-23
3.5246e-07 4.6527e-23
3.5276e-07 4.4622e-23
3.5305e-07 4.3112e-23
3.5334e-07 4.3781e-23
3.5364e-07 4.6482e-23
3.5393e-07 5.0365e-23
3.5423e-07 5.4106e-23
3.5452e-07 5.591e-23
3.5482e-07 5.5083e-23
3.5512e-07 5.2558e-23
3.5541e-07 4.9746e-23
3.5571e-07 4.7766e-23
3.5601e-07 4.7385e-23
3.563e-07 4.8764e-23
3.566e-07 5.1531e-23
3.569e-07 5.4863e-23
3.572e-07 5.7018e-23
3.5749e-07 5.6752e-23
3.5779e-07 5.4962e-23
3.5809e-07 5.3063e-23
3.5839e-07 5.1314e-23
3.5869e-07 4.9535e-23
3.5899e-07 4.8146e-23
3.5929e-07 4.7718e-23
3.5959e-07 4.7812e-23
3.5989e-07 4.8022e-23
3.6019e-07 4.908e-23
3.6049e-07 5.1301e-23
3.6079e-07 5.3558e-23
3.6109e-07 5.4446e-23
3.6139e-07 5.369e-23
3.6169e-07 5.2406e-23
3.6199e-07 5.1936e-23
3.623e-07 5.2361e-23
3.626e-07 5.2838e-23
3.629e-07 5.291e-23
3.632e-07 5.2521e-23
3.6351e-07 5.1583e-23
3.6381e-07 5.0928e-23
3.6411e-07 5.1886e-23
3.6442e-07 5.426e-23
3.6472e-07 5.7012e-23
3.6502e-07 5.9678e-23
3.6533e-07 6.1401e-23
3.6563e-07 6.0906e-23
3.6594e-07 5.8217e-23
3.6624e-07 5.4808e-23
3.6655e-07 5.2677e-23
3.6686e-07 5.3035e-23
3.6716e-07 5.5088e-23
3.6747e-07 5.672e-23
3.6777e-07 5.6907e-23
3.6808e-07 5.6287e-23
3.6839e-07 5.5365e-23
3.687e-07 5.4597e-23
3.69e-07 5.4691e-23
3.6931e-07 5.5231e-23
3.6962e-07 5.5352e-23
3.6993e-07 5.5367e-23
3.7024e-07 5.5142e-23
3.7054e-07 5.3849e-23
3.7085e-07 5.2774e-23
3.7116e-07 5.3771e-23
3.7147e-07 5.6634e-23
3.7178e-07 5.9928e-23
3.7209e-07 6.1986e-23
3.724e-07 6.2177e-23
3.7271e-07 6.0741e-23
3.7302e-07 5.837e-23
3.7334e-07 5.6456e-23
3.7365e-07 5.5951e-23
3.7396e-07 5.6134e-23
3.7427e-07 5.5283e-23
3.7458e-07 5.401e-23
3.749e-07 5.501e-23
3.7521e-07 5.9538e-23
3.7552e-07 6.3795e-23
3.7583e-07 6.5096e-23
3.7615e-07 6.6544e-23
3.7646e-07 6.7103e-23
3.7678e-07 6.4299e-23
3.7709e-07 6.0045e-23
3.7741e-07 5.6444e-23
3.7772e-07 5.4712e-23
3.7804e-07 5.4283e-23
3.7835e-07 5.4199e-23
3.7867e-07 5.4851e-23
3.7898e-07 5.659e-23
3.793e-07 5.9767e-23
3.7961e-07 6.3437e-23
3.7993e-07 6.4957e-23
3.8025e-07 6.4303e-23
3.8057e-07 6.337e-23
3.8088e-07 6.228e-23
3.812e-07 6.1009e-23
3.8152e-07 6.0325e-23
3.8184e-07 6.0158e-23
3.8216e-07 5.9241e-23
3.8247e-07 5.7524e-23
3.8279e-07 5.6759e-23
3.8311e-07 5.7343e-23
3.8343e-07 5.8567e-23
3.8375e-07 6.0057e-23
3.8407e-07 6.1311e-23
3.8439e-07 6.2523e-23
3.8471e-07 6.3534e-23
3.8503e-07 6.2997e-23
3.8536e-07 6.2077e-23
3.8568e-07 6.1892e-23
3.86e-07 6.0413e-23
3.8632e-07 5.8111e-23
3.8664e-07 5.7846e-23
3.8697e-07 5.9639e-23
3.8729e-07 6.1425e-23
3.8761e-07 6.2391e-23
3.8793e-07 6.2402e-23
3.8826e-07 6.1416e-23
3.8858e-07 6.1025e-23
3.8891e-07 6.253e-23
3.8923e-07 6.3984e-23
3.8956e-07 6.3487e-23
3.8988e-07 6.2855e-23
3.9021e-07 6.3145e-23
3.9053e-07 6.2811e-23
3.9086e-07 6.2085e-23
3.9118e-07 6.2533e-23
3.9151e-07 6.4868e-23
3.9184e-07 6.6684e-23
3.9216e-07 6.5486e-23
3.9249e-07 6.3606e-23
3.9282e-07 6.1609e-23
3.9315e-07 5.8725e-23
3.9347e-07 5.7476e-23
3.938e-07 5.7788e-23
3.9413e-07 5.7483e-23
3.9446e-07 5.7065e-23
3.9479e-07 5.8278e-23
3.9512e-07 6.1434e-23
3.9545e-07 6.4722e-23
3.9578e-07 6.5717e-23
3.9611e-07 6.3908e-23
3.9644e-07 6.0789e-23
3.9677e-07 5.8702e-23
3.971e-07 5.8412e-23
3.9743e-07 5.977e-23
3.9776e-07 6.3367e-23
3.9809e-07 6.7818e-23
3.9843e-07 6.928e-23
3.9876e-07 6.5812e-23
3.9909e-07 6.1385e-23
3.9942e-07 6.1415e-23
3.9976e-07 6.5485e-23
4.0009e-07 6.907e-23
4.0042e-07 6.9611e-23
4.0076e-07 6.8598e-23
4.0109e-07 6.7402e-23
4.0143e-07 6.565e-23
4.0176e-07 6.3163e-23
4.021e-07 6.0172e-23
4.0243e-07 5.7563e-23
4.0277e-07 5.6173e-23
4.031e-07 5.5896e-23
4.0344e-07 5.7262e-23
4.0378e-07 6.0302e-23
4.0411e-07 6.2046e-23
4.0445e-07 6.1983e-23
4.0479e-07 6.3745e-23
4.0513e-07 6.6112e-23
4.0546e-07 6.4326e-23
4.058e-07 6.0209e-23
4.0614e-07 5.7678e-23
4.0648e-07 5.5215e-23
4.0682e-07 5.2348e-23
4.0716e-07 5.1682e-23
4.075e-07 5.4492e-23
4.0784e-07 6.0512e-23
4.0818e-07 6.7227e-23
4.0852e-07 7.0028e-23
4.0886e-07 6.7456e-23
4.092e-07 6.4726e-23
4.0954e-07 6.381e-23
4.0988e-07 6.3758e-23
4.1023e-07 6.6188e-23
4.1057e-07 6.7757e-23
4.1091e-07 6.4562e-23
4.1125e-07 5.9359e-23
4.116e-07 5.5981e-23
4.1194e-07 5.5113e-23
4.1228e-07 5.6543e-23
4.1263e-07 6.102e-23
4.1297e-07 6.783e-23
4.1332e-07 7.346e-23
4.1366e-07 7.2087e-23
4.1401e-07 6.4408e-23
4.1435e-07 5.9339e-23
4.147e-07 5.9545e-23
4.1504e-07 5.9485e-23
4.1539e-07 5.6103e-23
4.1574e-07 5.2458e-23
4.1608e-07 5.1379e-23
4.1643e-07 5.1764e-23
4.1678e-07 5.2905e-23
4.1712e-07 5.4729e-23
4.1747e-07 5.6193e-23
4.1782e-07 5.7314e-23
4.1817e-07 5.8704e-23
4.1852e-07 5.9053e-23
4.1887e-07 5.8214e-23
4.1922e-07 5.9241e-23
4.1957e-07 6.1404e-23
4.1992e-07 6.2055e-23
4.2027e-07 6.1903e-23
4.2062e-07 6.2221e-23
4.2097e-07 6.2034e-23
4.2132e-07 6.0718e-23
4.2167e-07 6.1288e-23
4.2202e-07 6.3311e-23
4.2238e-07 6.2989e-23
4.2273e-07 6.123e-23
4.2308e-07 6.0924e-23
4.2343e-07 6.2473e-23
4.2379e-07 6.4125e-23
4.2414e-07 6.5476e-23
4.2449e-07 6.584e-23
4.2485e-07 6.2724e-23
4.252e-07 5.7607e-23
4.2556e-07 5.3266e-23
4.2591e-07 4.9593e-23
4.2627e-07 4.7252e-23
4.2662e-07 4.8113e-23
4.2698e-07 5.3082e-23
4.2733e-07 5.8853e-23
4.2769e-07 6.1755e-23
4.2805e-07 6.1903e-23
4.2841e-07 5.9227e-23
4.2876e-07 5.4632e-23
4.2912e-07 5.0016e-23
4.2948e-07 4.6561e-23
4.2984e-07 4.7129e-23
4.302e-07 5.2892e-23
4.3055e-07 5.9403e-23
4.3091e-07 6.1868e-23
4.3127e-07 6.0446e-23
4.3163e-07 5.6895e-23
4.3199e-07 5.1962e-23
4.3235e-07 4.8066e-23
4.3271e-07 4.808e-23
4.3307e-07 5.1777e-23
4.3344e-07 5.633e-23
4.338e-07 5.8602e-23
4.3416e-07 5.819e-23
4.3452e-07 6.0675e-23
4.3488e-07 6.7211e-23
4.3525e-07 6.8941e-23
4.3561e-07 6.4264e-23
4.3597e-07 5.974e-23
4.3634e-07 5.6526e-23
4.367e-07 5.2437e-23
4.3707e-07 4.7473e-23
4.3743e-07 4.3651e-23
4.3779e-07 4.1956e-23
4.3816e-07 4.4223e-23
4.3853e-07 5.3212e-23
4.3889e-07 6.4141e-23
4.3926e-07 6.8619e-23
4.3962e-07 6.5968e-23
4.3999e-07 5.9482e-23
4.4036e-07 5.1655e-23
4.4073e-07 4.6297e-23
4.4109e-07 4.3609e-23
4.4146e-07 4.0874e-23
4.4183e-07 3.9445e-23
4.422e-07 4.0567e-23
4.4257e-07 4.2743e-23
4.4294e-07 4.4833e-23
4.4331e-07 4.6278e-23
4.4368e-07 4.7787e-23
4.4405e-07 5.1589e-23
4.4442e-07 5.8973e-23
4.4479e-07 6.4251e-23
4.4516e-07 6.1583e-23
4.4553e-07 5.5546e-23
4.459e-07 5.0752e-23
4.4627e-07 4.6465e-23
4.4664e-07 4.3959e-23
4.4702e-07 4.6097e-23
4.4739e-07 5.4235e-23
4.4776e-07 6.5163e-23
4.4814e-07 6.9001e-23
4.4851e-07 6.2339e-23
4.4889e-07 5.3841e-23
4.4926e-07 4.804e-23
4.4963e-07 4.4254e-23
4.5001e-07 4.3901e-23
4.5038e-07 4.6008e-23
4.5076e-07 4.6733e-23
4.5114e-07 4.5431e-23
4.5151e-07 4.5113e-23
4.5189e-07 4.6638e-23
4.5227e-07 4.7853e-23
4.5264e-07 4.7531e-23
4.5302e-07 4.6564e-23
4.534e-07 4.5021e-23
4.5378e-07 4.1938e-23
4.5416e-07 4.1018e-23
4.5454e-07 4.396e-23
4.5491e-07 4.5653e-23
4.5529e-07 4.453e-23
4.5567e-07 4.3589e-23
4.5605e-07 4.2366e-23
4.5643e-07 3.9219e-23
4.5682e-07 3.8297e-23
4.572e-07 4.304e-23
4.5758e-07 4.9081e-23
4.5796e-07 5.1223e-23
4.5834e-07 4.9492e-23
4.5872e-07 4.5796e-23
4.5911e-07 4.292e-23
4.5949e-07 4.3339e-23
4.5987e-07 4.603e-23
4.6026e-07 4.8778e-23
4.6064e-07 4.8939e-23
4.6102e-07 4.6232e-23
4.6141e-07 4.2798e-23
4.6179e-07 4.0098e-23
4.6218e-07 4.0496e-23
4.6256e-07 4.6431e-23
4.6295e-07 5.4076e-23
4.6334e-07 5.5556e-23
4.6372e-07 5.1095e-23
4.6411e-07 4.6707e-23
4.645e-07 4.3758e-23
4.6489e-07 4.0045e-23
4.6527e-07 3.5147e-23
4.6566e-07 3.1584e-23
4.6605e-07 3.2359e-23
4.6644e-07 3.7586e-23
4.6683e-07 4.272e-23
4.6722e-07 4.3782e-23
4.6761e-07 4.279e-23
4.68e-07 4.104e-23
4.6839e-07 3.8016e-23
4.6878e-07 3.5742e-23
4.6917e-07 3.4155e-23
4.6956e-07 3.2995e-23
4.6995e-07 3.3792e-23
4.7034e-07 3.4658e-23
4.7074e-07 3.3693e-23
4.7113e-07 3.287e-23
4.7152e-07 3.3859e-23
4.7192e-07 3.4952e-23
4.7231e-07 3.4701e-23
4.727e-07 3.479e-23
4.731e-07 3.7583e-23
4.7349e-07 4.3845e-23
4.7389e-07 4.8915e-23
4.7428e-07 4.9289e-23
4.7468e-07 4.8085e-23
4.7507e-07 4.5854e-23
4.7547e-07 4.1952e-23
4.7587e-07 3.8433e-23
4.7626e-07 3.6091e-23
4.7666e-07 3.4472e-23
4.7706e-07 3.3546e-23
4.7746e-07 3.3425e-23
4.7786e-07 3.3192e-23
4.7825e-07 3.2871e-23
4.7865e-07 3.3843e-23
4.7905e-07 3.698e-23
4.7945e-07 4.0637e-23
4.7985e-07 4.0847e-23
4.8025e-07 3.7943e-23
4.8065e-07 3.6223e-23
4.8105e-07 3.6457e-23
4.8146e-07 3.5926e-23
4.8186e-07 3.3195e-23
4.8226e-07 3.0038e-23
4.8266e-07 2.7534e-23
4.8306e-07 2.543e-23
4.8347e-07 2.4582e-23
4.8387e-07 2.5348e-23
4.8427e-07 2.6805e-23
4.8468e-07 2.799e-23
4.8508e-07 2.8405e-23
4.8549e-07 2.8646e-23
4.8589e-07 2.8808e-23
4.863e-07 2.7962e-23
4.867e-07 2.6675e-23
4.8711e-07 2.6527e-23
4.8752e-07 2.8388e-23
4.8792e-07 3.3066e-23
4.8833e-07 3.9954e-23
4.8874e-07 4.4081e-23
4.8914e-07 4.2367e-23
4.8955e-07 3.8166e-23
4.8996e-07 3.4327e-23
4.9037e-07 3.0802e-23
4.9078e-07 2.7083e-23
4.9119e-07 2.4574e-23
4.916e-07 2.4907e-23
4.9201e-07 2.5997e-23
4.9242e-07 2.5993e-23
4.9283e-07 2.6823e-23
4.9324e-07 2.8972e-23
4.9365e-07 3.0913e-23
4.9406e-07 3.2971e-23
4.9448e-07 3.4565e-23
4.9489e-07 3.396e-23
4.953e-07 3.2828e-23
4.9571e-07 3.2981e-23
4.9613e-07 3.3256e-23
4.9654e-07 3.2096e-23
4.9696e-07 2.888e-23
4.9737e-07 2.5136e-23
4.9779e-07 2.2444e-23
4.982e-07 2.0501e-23
4.9862e-07 1.903e-23
4.9903e-07 1.7717e-23
4.9945e-07 1.6599e-23
4.9986e-07 1.6266e-23
5.0028e-07 1.6795e-23
5.007e-07 1.7999e-23
5.0112e-07 1.9178e-23
5.0154e-07 2.0268e-23
5.0195e-07 2.2596e-23
5.0237e-07 2.5959e-23
5.0279e-07 2.7416e-23
5.0321e-07 2.5523e-23
5.0363e-07 2.4064e-23
5.0405e-07 2.6706e-23
5.0447e-07 3.1164e-23
5.0489e-07 3.235e-23
5.0531e-07 2.8994e-23
5.0573e-07 2.5182e-23
5.0616e-07 2.3751e-23
5.0658e-07 2.295e-23
5.07e-07 2.1456e-23
5.0742e-07 2.0322e-23
5.0785e-07 2.0624e-23
5.0827e-07 2.2136e-23
5.087e-07 2.4202e-23
5.0912e-07 2.618e-23
5.0954e-07 2.7388e-23
5.0997e-07 2.7231e-23
5.104e-07 2.6136e-23
5.1082e-07 2.5381e-23
5.1125e-07 2.4731e-23
5.1167e-07 2.4063e-23
5.121e-07 2.4478e-23
5.1253e-07 2.4241e-23
5.1296e-07 2.2029e-23
5.1338e-07 1.9757e-23
5.1381e-07 1.848e-23
5.1424e-07 1.7746e-23
5.1467e-07 1.6915e-23
5.151e-07 1.6097e-23
5.1553e-07 1.5687e-23
5.1596e-07 1.5376e-23
5.1639e-07 1.4748e-23
5.1682e-07 1.393e-23
5.1725e-07 1.373e-23
5.1768e-07 1.4864e-23
5.1811e-07 1.7433e-23
5.1855e-07 1.936e-23
5.1898e-07 1.9371e-23
5.1941e-07 1.9282e-23
5.1984e-07 1.9226e-23
5.2028e-07 1.8282e-23
5.2071e-07 1.6849e-23
5.2115e-07 1.5615e-23
5.2158e-07 1.4985e-23
5.2202e-07 1.4814e-23
5.2245e-07 1.5091e-23
5.2289e-07 1.5434e-23
5.2332e-07 1.5222e-23
5.2376e-07 1.5362e-23
5.242e-07 1.7001e-23
5.2464e-07 2.007e-23
5.2507e-07 2.2819e-23
5.2551e-07 2.329e-23
5.2595e-07 2.257e-23
5.2639e-07 2.1722e-23
5.2683e-07 1.9879e-23
5.2727e-07 1.8317e-23
5.2771e-07 1.8224e-23
5.2815e-07 1.7862e-23
5.2859e-07 1.6617e-23
5.2903e-07 1.5523e-23
5.2947e-07 1.5032e-23
5.2991e-07 1.5457e-23
5.3035e-07 1.5987e-23
5.308e-07 1.5827e-23
5.3124e-07 1.5844e-23
5.3168e-07 1.6208e-23
5.3213e-07 1.653e-23
5.3257e-07 1.6497e-23
5.3301e-07 1.5599e-23
5.3346e-07 1.4253e-23
5.339e-07 1.3258e-23
5.3435e-07 1.2397e-23
5.3479e-07 1.0933e-23
5.3524e-07 9.3508e-24
5.3569e-07 8.8884e-24
5.3613e-07 9.1457e-24
5.3658e-07 9.0514e-24
5.3703e-07 8.7638e-24
5.3748e-07 9.2021e-24
5.3793e-07 1.0828e-23
5.3837e-07 1.2448e-23
5.3882e-07 1.2978e-23
5.3927e-07 1.252e-23
5.3972e-07 1.1063e-23
5.4017e-07 9.3946e-24
5.4062e-07 8.7879e-24
5.4107e-07 9.8539e-24
5.4153e-07 1.2005e-23
5.4198e-07 1.386e-23
5.4243e-07 1.4885e-23
5.4288e-07 1.5295e-23
5.4334e-07 1.5003e-23
5.4379e-07 1.3969e-23
5.4424e-07 1.3263e-23
5.447e-07 1.4111e-23
5.4515e-07 1.4981e-23
5.4561e-07 1.3914e-23
5.4606e-07 1.2141e-23
5.4652e-07 1.1296e-23
5.4697e-07 1.1931e-23
5.4743e-07 1.3329e-23
5.4788e-07 1.3813e-23
5.4834e-07 1.3515e-23
5.488e-07 1.3573e-23
5.4926e-07 1.3434e-23
5.4972e-07 1.2301e-23
5.5017e-07 1.1106e-23
5.5063e-07 1.0289e-23
5.5109e-07 9.6278e-24
5.5155e-07 9.4409e-24
5.5201e-07 9.825e-24
5.5247e-07 1.0715e-23
5.5293e-07 1.1434e-23
5.5339e-07 1.1148e-23
5.5386e-07 1.0334e-23
5.5432e-07 9.4546e-24
5.5478e-07 8.3886e-24
5.5524e-07 7.4042e-24
5.5571e-07 6.7262e-24
5.5617e-07 6.5497e-24
5.5663e-07 6.6845e-24
5.571e-07 6.6577e-24
5.5756e-07 6.7035e-24
5.5803e-07 6.811e-24
5.5849e-07 6.4156e-24
5.5896e-07 5.7211e-24
5.5943e-07 5.4045e-24
5.5989e-07 5.6328e-24
5.6036e-07 6.1163e-24
5.6083e-07 6.5866e-24
5.613e-07 7.0336e-24
5.6176e-07 7.3764e-24
5.6223e-07 7.7952e-24
5.627e-07 8.6902e-24
5.6317e-07 1.0198e-23
5.6364e-07 1.1535e-23
5.6411e-07 1.2114e-23
5.6458e-07 1.2022e-23
5.6505e-07 1.0963e-23
5.6552e-07 9.1781e-24
5.66e-07 7.2609e-24
5.6647e-07 6.0843e-24
5.6694e-07 6.2663e-24
5.6741e-07 7.2683e-24
5.6789e-07 8.2158e-24
5.6836e-07 8.3794e-24
5.6883e-07 7.9048e-24
5.6931e-07 7.7003e-24
5.6978e-07 8.2377e-24
5.7026e-07 9.4563e-24
5.7074e-07 1.0452e-23
5.7121e-07 1.0441e-23
5.7169e-07 1.0135e-23
5.7216e-07 9.5649e-24
5.7264e-07 8.4201e-24
5.7312e-07 7.3629e-24
5.736e-07 6.4767e-24
5.7408e-07 5.6501e-24
5.7456e-07 5.1482e-24
5.7503e-07 4.8223e-24
5.7551e-07 4.3076e-24
5.7599e-07 3.7099e-24
5.7647e-07 3.4296e-24
5.7696e-07 3.4716e-24
5.7744e-07 3.6922e-24
5.7792e-07 4.1708e-24
5.784e-07 5.0046e-24
5.7888e-07 5.7664e-24
5.7937e-07 5.9399e-24
5.7985e-07 5.77e-24
5.8033e-07 5.3842e-24
5.8082e-07 4.6562e-24
5.813e-07 4.0255e-24
5.8179e-07 3.7346e-24
5.8227e-07 3.5848e-24
5.8276e-07 3.6383e-24
5.8324e-07 3.8289e-24
5.8373e-07 4.0749e-24
5.8422e-07 4.671e-24
5.8471e-07 5.5232e-24
5.8519e-07 6.0889e-24
5.8568e-07 6.0664e-24
5.8617e-07 5.7229e-24
5.8666e-07 5.4157e-24
5.8715e-07 5.0322e-24
5.8764e-07 4.5589e-24
5.8813e-07 4.2789e-24
5.8862e-07 4.3785e-24
5.8911e-07 4.8691e-24
5.896e-07 5.5278e-24
5.9009e-07 6.1595e-24
5.9059e-07 6.3951e-24
5.9108e-07 6.4828e-24
5.9157e-07 7.1553e-24
5.9206e-07 7.8399e-24
5.9256e-07 7.8889e-24
5.9305e-07 7.3459e-24
5.9355e-07 6.0959e-24
5.9404e-07 4.7839e-24
5.9454e-07 3.9774e-24
5.9503e-07 3.4013e-24
5.9553e-07 3.0536e-24
5.9603e-07 3.0642e-24
5.9652e-07 3.1925e-24
5.9702e-07 3.3165e-24
5.9752e-07 3.4231e-24
5.9802e-07 3.5147e-24
5.9852e-07 3.7554e-24
5.9902e-07 4.1044e-24
5.9952e-07 4.4668e-24
6.0002e-07 4.792e-24
6.0052e-07 4.8608e-24
6.0102e-07 4.7004e-24
6.0152e-07 4.4416e-24
6.0202e-07 3.9827e-24
6.0252e-07 3.3305e-24
6.0303e-07 2.6197e-24
6.0353e-07 2.0492e-24
6.0403e-07 1.7446e-24
6.0454e-07 1.6824e-24
6.0504e-07 1.8349e-24
6.0555e-07 1.9322e-24
6.0605e-07 1.8452e-24
6.0656e-07 1.8202e-24
6.0706e-07 1.8918e-24
6.0757e-07 1.9986e-24
6.0808e-07 2.0683e-24
6.0858e-07 2.0323e-24
6.0909e-07 1.9865e-24
6.096e-07 1.9867e-24
6.1011e-07 2.0524e-24
6.1062e-07 2.3864e-24
6.1113e-07 3.1482e-24
6.1164e-07 4.0718e-24
6.1215e-07 4.9206e-24
6.1266e-07 5.0732e-24
6.1317e-07 4.2601e-24
6.1368e-07 3.6054e-24
6.1419e-07 3.3859e-24
6.147e-07 3.1023e-24
6.1522e-07 3.0444e-24
6.1573e-07 3.3906e-24
6.1624e-07 3.8883e-24
6.1676e-07 4.1078e-24
6.1727e-07 3.8424e-24
6.1779e-07 3.322e-24
6.183e-07 2.7284e-24
6.1882e-07 2.403e-24
6.1933e-07 2.5213e-24
6.1985e-07 2.8937e-24
6.2037e-07 3.2573e-24
6.2089e-07 3.1741e-24
6.214e-07 2.652e-24
6.2192e-07 2.2457e-24
6.2244e-07 2.1886e-24
6.2296e-07 2.2963e-24
6.2348e-07 2.3702e-24
6.24e-07 2.3269e-24
6.2452e-07 2.2602e-24
6.2504e-07 2.2102e-24
6.2556e-07 2.0813e-24
6.2609e-07 1.9115e-24
6.2661e-07 1.7744e-24
6.2713e-07 1.6341e-24
6.2765e-07 1.4797e-24
6.2818e-07 1.3866e-24
6.287e-07 1.3665e-24
6.2923e-07 1.3062e-24
6.2975e-07 1.1607e-24
6.3028e-07 1.0966e-24
6.308e-07 1.2001e-24
6.3133e-07 1.3411e-24
6.3185e-07 1.4059e-24
6.3238e-07 1.3504e-24
6.3291e-07 1.3023e-24
6.3344e-07 1.3966e-24
6.3397e-07 1.4847e-24
6.3449e-07 1.4387e-24
6.3502e-07 1.3714e-24
6.3555e-07 1.4109e-24
6.3608e-07 1.4991e-24
6.3661e-07 1.525e-24
6.3715e-07 1.5469e-24
6.3768e-07 1.5643e-24
6.3821e-07 1.4955e-24
6.3874e-07 1.4148e-24
6.3927e-07 1.4418e-24
6.3981e-07 1.529e-24
6.4034e-07 1.5887e-24
6.4088e-07 1.6342e-24
6.4141e-07 1.752e-24
6.4195e-07 2.0027e-24
6.4248e-07 2.19e-24
6.4302e-07 2.1493e-24
6.4355e-07 1.9479e-24
6.4409e-07 1.6731e-24
6.4463e-07 1.5663e-24
6.4516e-07 1.6823e-24
6.457e-07 1.9233e-24
6.4624e-07 2.3284e-24
6.4678e-07 2.6698e-24
6.4732e-07 2.6628e-24
6.4786e-07 2.2546e-24
6.484e-07 1.656e-24
6.4894e-07 1.2916e-24
6.4948e-07 1.2366e-24
6.5003e-07 1.3118e-24
6.5057e-07 1.4022e-24
6.5111e-07 1.4221e-24
6.5165e-07 1.3322e-24
6.522e-07 1.1992e-24
6.5274e-07 1.0907e-24
6.5329e-07 9.9633e-25
6.5383e-07 9.4169e-25
6.5438e-07 9.6194e-25
6.5492e-07 9.9839e-25
6.5547e-07 1.0087e-24
6.5601e-07 9.7046e-25
6.5656e-07 8.611e-25
6.5711e-07 7.5732e-25
6.5766e-07 7.106e-25
6.5821e-07 6.9839e-25
6.5876e-07 7.1536e-25
6.5931e-07 7.2975e-25
6.5986e-07 6.9246e-25
6.6041e-07 6.0901e-25
6.6096e-07 5.2933e-25
6.6151e-07 4.65e-25
6.6206e-07 4.1857e-25
6.6261e-07 3.9721e-25
6.6317e-07 3.9432e-25
6.6372e-07 4.0598e-25
6.6427e-07 4.5252e-25
6.6483e-07 5.3442e-25
6.6538e-07 6.2664e-25
6.6594e-07 6.5735e-25
6.6649e-07 4.5659e-25
6.6705e-07 1.4073e-25
6.676e-07 -0
6.6816e-07 -0
6.6872e-07 -0
6.6928e-07 -0
6.6983e-07 -0
6.7039e-07 -0
6.7095e-07 -0
6.7151e-07 -0
6.7207e-07 -0
6.7263e-07 -0
6.7319e-07 -0
6.7376e-07 -0
6.7432e-07 -0
6.7488e-07 -0
6.7544e-07 -0
6.7601e-07 -0
6.7657e-07 -0
6.7714e-07 -0
6.777e-07 -0
6.7827e-07 -0
6.7883e-07 -0
6.794e-07 -0
6.7996e-07 -0
6.8053e-07 -0
6.811e-07 -0
6.8167e-07 -0
6.8224e-07 -0
6.8281e-07 -0
6.8338e-07 -0
6.8395e-07 -0
6.8452e-07 -0
6.8509e-07 -0
6.8566e-07 -0
6.8623e-07 -0
6.868e-07 -0
6.8738e-07 -0
6.8795e-07 -0
6.8852e-07 -0
6.891e-07 -0
6.8967e-07 -0
6.9025e-07 -0
6.9082e-07 -0
6.914e-07 -0
6.9198e-07 -0
6.9255e-07 -0
6.9313e-07 -0
6.9371e-07 -0
6.9429e-07 -0
6.9487e-07 -0
6.9545e-07 -0
6.9603e-07 -0
6.9661e-07 -0
6.9719e-07 -0
6.9777e-07 -0
6.9835e-07 -0
6.9894e-07 -0
6.9952e-07 -0
7.001e-07 -0
7.0069e-07 -0
7.0127e-07 -0
7.0186e-07 -0
7.0244e-07 -0
7.0303e-07 -0
7.0361e-07 -0
7.042e-07 -0
7.0479e-07 -0
7.0538e-07 -0
7.0596e-07 -0
7.0655e-07 -0
7.0714e-07 -0
7.0773e-07 -0
7.0832e-07 -0
7.0891e-07 -0
7.0951e-07 -0
7.101e-07 -0
7.1069e-07 -0
7.1128e-07 -0
7.1188e-07 -0
7.1247e-07 -0
7.1306e-07 -0
7.1366e-07 -0
7.1425e-07 -0
7.1485e-07 -0
7.1545e-07 -0
7.1604e-07 -0
7.1664e-07 -0
7.1724e-07 -0
7.1784e-07 -0
7.1844e-07 -0
7.1904e-07 -0
7.1964e-07 -0
7.2024e-07 -0
7.2084e-07 -0
7.2144e-07 -0
7.2204e-07 -0
7.2264e-07 -0
7.2324e-07 -0
7.2385e-07 -0
7.2445e-07 -0
7.2506e-07 -0
7.2566e-07 -0
7.2627e-07 -0
7.2687e-07 -0
7.2748e-07 -0
7.2809e-07 -0
7.2869e-07 -0
7.293e-07 -0
7.2991e-07 -0
7.3052e-07 -0
7.3113e-07 -0
7.3174e-07 -0
7.3235e-07 -0
7.3296e-07 -0
7.3357e-07 -0
7.3418e-07 -0
7.348e-07 -0
7.3541e-07 -0
7.3602e-07 -0
7.3664e-07 -0
7.3725e-07 -0
7.3787e-07 -0
7.3848e-07 -0
7.391e-07 -0
7.3971e-07 -0
7.4033e-07 -0
7.4095e-07 -0
7.4157e-07 -0
7.4218e-07 -0
7.428e-07 -0
7.4342e-07 -0
7.4404e-07 -0
7.4466e-07 -0
7.4529e-07 -0
7.4591e-07 -0
7.4653e-07 -0
7.4715e-07 -0
7.4778e-07 -0
7.484e-07 -0
7.4902e-07 -0
7.4965e-07 -0
7.5027e-07 -0
7.509e-07 -0
7.5153e-07 -0
7.5215e-07 -0
7.5278e-07 -0
7.5341e-07 -0
7.5404e-07 -0
7.5467e-07 -0
7.553e-07 -0
7.5593e-07 -0
7.5656e-07 -0
7.5719e-07 -0
7.5782e-07 -0
7.5845e-07 -0
7.5908e-07 -0
7.5972e-07 -0
7.6035e-07 -0
7.6099e-07 -0
7.6162e-07 -0
7.6226e-07 -0
7.6289e-07 -0
7.6353e-07 -0
7.6417e-07 -0
7.648e-07 -0
7.6544e-07 -0
7.6608e-07 -0
7.6672e-07 -0
7.6736e-07 -0
7.68e-07 -0
7.6864e-07 -0
7.6928e-07 -0
7.6992e-07 -0
7.7056e-07 -0
7.7121e-07 -0
7.7185e-07 -0
7.7249e-07 -0
7.7314e-07 -0
7.7378e-07 -0
7.7443e-07 -0
7.7508e-07 -0
7.7572e-07 -0
7.7637e-07 -0
7.7702e-07 -0
7.7766e-07 -0
7.7831e-07 -0
7.7896e-07 -0
7.7961e-07 -0
7.8026e-07 -0
7.8091e-07 -0
7.8157e-07 -0
7.8222e-07 -0
7.8287e-07 -0
7.8352e-07 -0
7.8418e-07 -0
7.8483e-07 -0
7.8549e-07 -0
7.8614e-07 -0
7.868e-07 -0
7.8745e-07 -0
7.8811e-07 -0
7.8877e-07 -0
7.8943e-07 -0
7.9008e-07 -0
7.9074e-07 -0
7.914e-07 -0
7.9206e-07 -0
7.9272e-07 -0
7.9339e-07 -0
7.9405e-07 -0
7.9471e-07 -0
7.9537e-07 -0
7.9604e-07 -0
7.967e-07 -0
7.9736e-07 -0
7.9803e-07 -0
7.987e-07 -0
7.9936e-07 -0
8.0003e-07 -0
8.007e-07 -0
8.0136e-07 -0
8.0203e-07 -0
8.027e-07 -0
8.0337e-07 -0
8.0404e-07 -0
8.0471e-07 -0
8.0538e-07 -0
8.0606e-07 -0
8.0673e-07 -0
8.074e-07 -0
8.0807e-07 -0
8.0875e-07 -0
8.0942e-07 -0
8.101e-07 -0
8.1077e-07 -0
8.1145e-07 -0
8.1213e-07 -0
8.1281e-07 -0
8.1348e-07 -0
8.1416e-07 -0
8.1484e-07 -0
8.1552e-07 -0
8.162e-07 -0
8.1688e-07 -0
8.1756e-07 -0
8.1825e-07 -0
8.1893e-07 -0
8.1961e-07 -0
8.203e-07 -0
8.2098e-07 -0
8.2166e-07 -0
8.2235e-07 -0
8.2304e-07 -0
8.2372e-07 -0
8.2441e-07 -0
8.251e-07 -0
8.2579e-07 -0
8.2647e-07 -0
8.2716e-07 -0
8.2785e-07 -0
8.2854e-07 -0
8.2924e-07 -0
8.2993e-07 -0
8.3062e-07 -0
8.3131e-07 -0
8.3201e-07 -0
8.327e-07 -0
8.334e-07 -0
8.3409e-07 -0
8.3479e-07 -0
8.3548e-07 -0
8.3618e-07 -0
8.3688e-07 -0
8.3758e-07 -0
8.3827e-07 -0
8.3897e-07 -0
8.3967e-07 -0
8.4037e-07 -0
8.4107e-07 -0
8.4178e-07 -0
8.4248e-07 -0
8.4318e-07 -0
8.4388e-07 -0
8.4459e-07 -0
8.4529e-07 -0
8.46e-07 -0
8.467e-07 -0
8.4741e-07 -0
8.4812e-07 -0
8.4883e-07 -0
8.4953e-07 -0
8.5024e-07 -0
8.5095e-07 -0
8.5166e-07 -0
8.5237e-07 -0
8.5308e-07 -0
8.5379e-07 -0
8.5451e-07 -0
8.5522e-07 -0
8.5593e-07 -0
8.5665e-07 -0
8.5736e-07 -0
8.5808e-07 -0
8.5879e-07 -0
8.5951e-07 -0
8.6023e-07 -0
8.6094e-07 -0
8.6166e-07 -0
8.6238e-07 -0
8.631e-07 -0
8.6382e-07 -0
8.6454e-07 -0
8.6526e-07 -0
8.6598e-07 -0
8.6671e-07 -0
8.6743e-07 -0
8.6815e-07 -0
8.6888e-07 -0
8.696e-07 -0
8.7033e-07 -0
8.7105e-07 -0
8.7178e-07 -0
8.7251e-07 -0
8.7324e-07 -0
8.7396e-07 -0
8.7469e-07 -0
8.7542e-07 -0
8.7615e-07 -0
8.7688e-07 -0
8.7762e-07 -0
8.7835e-07 -0
8.7908e-07 -0
8.7981e-07 -0
8.8055e-07 -0
8.8128e-07 -0
8.8202e-07 -0
8.8275e-07 -0
8.8349e-07 -0
8.8423e-07 -0
8.8496e-07 -0
8.857e-07 -0
8.8644e-07 -0
8.8718e-07 -0
8.8792e-07 -0
8.8866e-07 -0
8.894e-07 -0
8.9015e-07 -0
8.9089e-07 -0
8.9163e-07 -0
8.9237e-07 -0
8.9312e-07 -0
8.9386e-07 -0
8.9461e-07 -0
8.9536e-07 -0
8.961e-07 -0
8.9685e-07 -0
8.976e-07 -0
8.9835e-07 -0
8.991e-07 -0
8.9985e-07 -0
9.006e-07 -0
9.0135e-07 -0
9.021e-07 -0
9.0285e-07 -0
9.0361e-07 -0
9.0436e-07 -0
9.0512e-07 -0
9.0587e-07 -0
9.0663e-07 -0
9.0738e-07 -0
9.0814e-07 -0
9.089e-07 -0
9.0966e-07 -0
9.1041e-07 -0
9.1117e-07 -0
9.1193e-07 -0
9.1269e-07 -0
9.1346e-07 -0
9.1422e-07 -0
9.1498e-07 -0
9.1574e-07 -0
9.1651e-07 -0
9.1727e-07 -0
9.1804e-07 -0
9.188e-07 -0
9.1957e-07 -0
9.2034e-07 -0
9.211e-07 -0
9.2187e-07 -0
9.2264e-07 -0
9.2341e-07 -0
9.2418e-07 -0
9.2495e-07 -0
9.2572e-07 -0
9.265e-07 -0
9.2727e-07 -0
9.2804e-07 -0
9.2882e-07 -0
9.2959e-07 -0
9.3037e-07 -0
9.3114e-07 -0
9.3192e-07 -0
9.327e-07 -0
9.3348e-07 -0
9.3426e-07 -0
9.3503e-07 -0
9.3581e-07 -0
9.366e-07 -0
9.3738e-07 -0
9.3816e-07 -0
9.3894e-07 -0
9.3972e-07 -0
9.4051e-07 -0
9.4129e-07 -0
9.4208e-07 -0
9.4286e-07 -0
9.4365e-07 -0
9.4444e-07 -0
9.4523e-07 -0
9.4601e-07 -0
9.468e-07 -0
9.4759e-07 -0
9.4838e-07 -0
9.4918e-07 -0
9.4997e-07 -0
9.5076e-07 -0
9.5155e-07 -0
9.5235e-07 -0
9.5314e-07 -0
9.5394e-07 -0
9.5473e-07 -0
9.5553e-07 -0
9.5633e-07 -0
9.5712e-07 -0
9.5792e-07 -0
9.5872e-07 -0
9.5952e-07 -0
9.6032e-07 -0
9.6112e-07 -0
9.6192e-07 -0
9.6273e-07 -0
9.6353e-07 -0
9.6433e-07 -0
9.6514e-07 -0
9.6594e-07 -0
9.6675e-07 -0
9.6756e-07 -0
9.6836e-07 -0
9.6917e-07 -0
9.6998e-07 -0
9.7079e-07 -0
9.716e-07 -0
9.7241e-07 -0
9.7322e-07 -0
9.7403e-07 -0
9.7484e-07 -0
9.7566e-07 -0
9.7647e-07 -0
9.7729e-07 -0
9.781e-07 -0
9.7892e-07 -0
9.7973e-07 -0
9.8055e-07 -0
9.8137e-07 -0
9.8219e-07 -0
9.8301e-07 -0
9.8383e-07 -0
9.8465e-07 -0
9.8547e-07 -0
9.8629e-07 -0
9.8711e-07 -0
9.8794e-07 -0
9.8876e-07 -0
9.8959e-07 -0
9.9041e-07 -0
9.9124e-07 -0
9.9207e-07 -0
9.9289e-07 -0
9.9372e-07 -0
9.9455e-07 -0
9.9538e-07 -0
9.9621e-07 -0
9.9704e-07 -0
9.9787e-07 -0
9.9871e-07 -0
9.9954e-07 -0
1.0004e-06 -0
1.0012e-06 -0
1.002e-06 -0
1.0029e-06 -0
1.0037e-06 -0
1.0046e-06 -0
1.0054e-06 -0
1.0062e-06 -0
1.0071e-06 -0
1.0079e-06 -0
1.0087e-06 -0
1.0096e-06 -0
1.0104e-06 -0
1.0113e-06 -0
1.0121e-06 -0
1.013e-06 -0
1.0138e-06 -0
1.0147e-06 -0
1.0155e-06 -0
1.0163e-06 -0
1.0172e-06 -0
1.018e-06 -0
1.0189e-06 -0
1.0197e-06 -0
1.0206e-06 -0
1.0214e-06 -0
1.0223e-06 -0
1.0232e-06 -0
1.024e-06 -0
1.0249e-06 -0
1.0257e-06 -0
1.0266e-06 -0
1.0274e-06 -0
1.0283e-06 -0
1.0291e-06 -0
1.03e-06 -0
