2.8e-07 5.6433e-24
2.8023e-07 5.7054e-24
2.8047e-07 5.8019e-24
2.807e-07 5.8839e-24
2.8094e-07 6.038e-24
2.8117e-07 6.2093e-24
2.814e-07 6.2e-24
2.8164e-07 6.0583e-24
2.8187e-07 5.9151e-24
2.8211e-07 5.7732e-24
2.8234e-07 5.715e-24
2.8258e-07 5.7878e-24
2.8282e-07 5.9098e-24
2.8305e-07 6.066e-24
2.8329e-07 6.403e-24
2.8352e-07 6.8494e-24
2.8376e-07 7.0433e-24
2.84e-07 7.0974e-24
2.8423e-07 7.1417e-24
2.8447e-07 7.2364e-24
2.8471e-07 7.3942e-24
2.8495e-07 7.5616e-24
2.8518e-07 7.6785e-24
2.8542e-07 7.7902e-24
2.8566e-07 7.9183e-24
2.859e-07 8.021e-24
2.8614e-07 8.045e-24
2.8638e-07 7.9943e-24
2.8661e-07 7.9094e-24
2.8685e-07 7.8297e-24
2.8709e-07 7.7962e-24
2.8733e-07 7.8722e-24
2.8757e-07 7.8971e-24
2.8781e-07 7.8771e-24
2.8805e-07 7.9201e-24
2.8829e-07 8.0302e-24
2.8853e-07 8.1947e-24
2.8877e-07 8.3662e-24
2.8901e-07 8.5049e-24
2.8926e-07 8.6833e-24
2.895e-07 8.9283e-24
2.8974e-07 9.1489e-24
2.8998e-07 9.2886e-24
2.9022e-07 9.3241e-24
2.9046e-07 9.3532e-24
2.9071e-07 9.5358e-24
2.9095e-07 9.8945e-24
2.9119e-07 1.0253e-23
2.9143e-07 1.0467e-23
2.9168e-07 1.0569e-23
2.9192e-07 1.0696e-23
2.9216e-07 1.0883e-23
2.9241e-07 1.1007e-23
2.9265e-07 1.0891e-23
2.929e-07 1.0581e-23
2.9314e-07 1.033e-23
2.9339e-07 1.0182e-23
2.9363e-07 1.0128e-23
2.9388e-07 1.0173e-23
2.9412e-07 1.0398e-23
2.9437e-07 1.0822e-23
2.9461e-07 1.1233e-23
2.9486e-07 1.1362e-23
2.951e-07 1.1118e-23
2.9535e-07 1.0791e-23
2.956e-07 1.0647e-23
2.9584e-07 1.0827e-23
2.9609e-07 1.1325e-23
2.9634e-07 1.1894e-23
2.9658e-07 1.2489e-23
2.9683e-07 1.3257e-23
2.9708e-07 1.4086e-23
2.9733e-07 1.4607e-23
2.9757e-07 1.46e-23
2.9782e-07 1.4173e-23
2.9807e-07 1.3676e-23
2.9832e-07 1.334e-23
2.9857e-07 1.322e-23
2.9882e-07 1.3304e-23
2.9907e-07 1.3528e-23
2.9932e-07 1.3762e-23
2.9957e-07 1.3902e-23
2.9982e-07 1.3849e-23
3.0007e-07 1.359e-23
3.0032e-07 1.3369e-23
3.0057e-07 1.3363e-23
3.0082e-07 1.3412e-23
3.0107e-07 1.3472e-23
3.0132e-07 1.3714e-23
3.0157e-07 1.417e-23
3.0182e-07 1.4758e-23
3.0207e-07 1.5316e-23
3.0233e-07 1.5649e-23
3.0258e-07 1.5901e-23
3.0283e-07 1.6294e-23
3.0308e-07 1.6691e-23
3.0334e-07 1.6883e-23
3.0359e-07 1.6863e-23
3.0384e-07 1.6761e-23
3.041e-07 1.6736e-23
3.0435e-07 1.6861e-23
3.046e-07 1.7096e-23
3.0486e-07 1.7317e-23
3.0511e-07 1.7351e-23
3.0537e-07 1.7166e-23
3.0562e-07 1.6896e-23
3.0588e-07 1.6713e-23
3.0613e-07 1.6783e-23
3.0639e-07 1.714e-23
3.0664e-07 1.7651e-23
3.069e-07 1.8166e-23
3.0715e-07 1.849e-23
3.0741e-07 1.8476e-23
3.0767e-07 1.8204e-23
3.0792e-07 1.787e-23
3.0818e-07 1.7708e-23
3.0844e-07 1.7957e-23
3.087e-07 1.8723e-23
3.0895e-07 1.9743e-23
3.0921e-07 2.0451e-23
3.0947e-07 2.0608e-23
3.0973e-07 2.0361e-23
3.0998e-07 1.9995e-23
3.1024e-07 1.9877e-23
3.105e-07 2.0139e-23
3.1076e-07 2.0538e-23
3.1102e-07 2.0873e-23
3.1128e-07 2.1181e-23
3.1154e-07 2.1396e-23
3.118e-07 2.147e-23
3.1206e-07 2.1776e-23
3.1232e-07 2.2363e-23
3.1258e-07 2.2723e-23
3.1284e-07 2.2635e-23
3.131e-07 2.2289e-23
3.1336e-07 2.1868e-23
3.1362e-07 2.1555e-23
3.1389e-07 2.1533e-23
3.1415e-07 2.1822e-23
3.1441e-07 2.2486e-23
3.1467e-07 2.3412e-23
3.1494e-07 2.4094e-23
3.152e-07 2.4187e-23
3.1546e-07 2.3827e-23
3.1572e-07 2.3377e-23
3.1599e-07 2.3012e-23
3.1625e-07 2.2895e-23
3.1651e-07 2.3212e-23
3.1678e-07 2.3847e-23
3.1704e-07 2.4678e-23
3.1731e-07 2.5646e-23
3.1757e-07 2.6494e-23
3.1784e-07 2.6896e-23
3.181e-07 2.6826e-23
3.1837e-07 2.6476e-23
3.1863e-07 2.6012e-23
3.189e-07 2.5681e-23
3.1917e-07 2.561e-23
3.1943e-07 2.5898e-23
3.197e-07 2.6656e-23
3.1996e-07 2.759e-23
3.2023e-07 2.8202e-23
3.205e-07 2.8157e-23
3.2077e-07 2.7654e-23
3.2103e-07 2.7193e-23
3.213e-07 2.699e-23
3.2157e-07 2.7079e-23
3.2184e-07 2.7499e-23
3.2211e-07 2.813e-23
3.2238e-07 2.878e-23
3.2264e-07 2.9287e-23
3.2291e-07 2.9548e-23
3.2318e-07 2.9545e-23
3.2345e-07 2.9407e-23
3.2372e-07 2.9196e-23
3.2399e-07 2.8937e-23
3.2426e-07 2.883e-23
3.2453e-07 2.9135e-23
3.248e-07 3.0034e-23
3.2507e-07 3.1347e-23
3.2535e-07 3.2194e-23
3.2562e-07 3.2222e-23
3.2589e-07 3.1998e-23
3.2616e-07 3.2118e-23
3.2643e-07 3.2393e-23
3.2671e-07 3.2259e-23
3.2698e-07 3.1847e-23
3.2725e-07 3.1842e-23
3.2752e-07 3.2427e-23
3.278e-07 3.301e-23
3.2807e-07 3.3038e-23
3.2834e-07 3.2614e-23
3.2862e-07 3.2322e-23
3.2889e-07 3.2574e-23
3.2917e-07 3.3313e-23
3.2944e-07 3.4173e-23
3.2972e-07 3.4766e-23
3.2999e-07 3.4753e-23
3.3027e-07 3.4197e-23
3.3054e-07 3.3697e-23
3.3082e-07 3.3718e-23
3.3109e-07 3.4064e-23
3.3137e-07 3.4367e-23
3.3165e-07 3.4458e-23
3.3192e-07 3.4574e-23
3.322e-07 3.5329e-23
3.3248e-07 3.708e-23
3.3275e-07 3.9204e-23
3.3303e-07 4.0405e-23
3.3331e-07 3.9957e-23
3.3359e-07 3.842e-23
3.3387e-07 3.6645e-23
3.3414e-07 3.5247e-23
3.3442e-07 3.5074e-23
3.347e-07 3.6575e-23
3.3498e-07 3.8475e-23
3.3526e-07 3.8725e-23
3.3554e-07 3.7789e-23
3.3582e-07 3.7436e-23
3.361e-07 3.8094e-23
3.3638e-07 3.8968e-23
3.3666e-07 3.9418e-23
3.3694e-07 3.9218e-23
3.3722e-07 3.8316e-23
3.375e-07 3.7259e-23
3.3779e-07 3.6936e-23
3.3807e-07 3.8253e-23
3.3835e-07 4.1005e-23
3.3863e-07 4.3423e-23
3.3891e-07 4.4382e-23
3.392e-07 4.4083e-23
3.3948e-07 4.3044e-23
3.3976e-07 4.2219e-23
3.4005e-07 4.2199e-23
3.4033e-07 4.2658e-23
3.4061e-07 4.3446e-23
3.409e-07 4.4687e-23
3.4118e-07 4.5805e-23
3.4147e-07 4.5901e-23
3.4175e-07 4.483e-23
3.4204e-07 4.3047e-23
3.4232e-07 4.1161e-23
3.4261e-07 3.9744e-23
3.4289e-07 3.9137e-23
3.4318e-07 3.9684e-23
3.4347e-07 4.1183e-23
3.4375e-07 4.2564e-23
3.4404e-07 4.3093e-23
3.4433e-07 4.3151e-23
3.4461e-07 4.3483e-23
3.449e-07 4.3982e-23
3.4519e-07 4.4166e-23
3.4548e-07 4.4158e-23
3.4577e-07 4.4741e-23
3.4605e-07 4.614e-23
3.4634e-07 4.745e-23
3.4663e-07 4.8077e-23
3.4692e-07 4.7885e-23
3.4721e-07 4.7092e-23
3.475e-07 4.6545e-23
3.4779e-07 4.7659e-23
3.4808e-07 5.1081e-23
3.4837e-07 5.4229e-23
3.4866e-07 5.396e-23
3.4895e-07 5.0673e-23
3.4924e-07 4.6718e-23
3.4953e-07 4.4058e-23
3.4983e-07 4.335e-23
3.5012e-07 4.4062e-23
3.5041e-07 4.5543e-23
3.507e-07 4.717e-23
3.5099e-07 4.8471e-23
3.5129e-07 4.8761e-23
3.5158e-07 4.7606e-23
3.5187e-07 4.6637e-23
3.5217e-07 4.6994e-23
3.5246e-07 4.6773e-23
3.5276e-07 4.486e-23
3.5305e-07 4.3446e-23
3.5334e-07 4.4223e-23
3.5364e-07 4.6967e-23
3.5393e-07 5.0847e-23
3.5423e-07 5.4554e-23
3.5452e-07 5.6307e-23
3.5482e-07 5.5442e-23
3.5512e-07 5.2929e-23
3.5541e-07 5.0113e-23
3.5571e-07 4.8107e-23
3.5601e-07 4.7705e-23
3.563e-07 4.9032e-23
3.566e-07 5.1753e-23
3.569e-07 5.518e-23
3.572e-07 5.7456e-23
3.5749e-07 5.7226e-23
3.5779e-07 5.5494e-23
3.5809e-07 5.3596e-23
3.5839e-07 5.1763e-23
3.5869e-07 4.9825e-23
3.5899e-07 4.8406e-23
3.5929e-07 4.7986e-23
3.5959e-07 4.8025e-23
3.5989e-07 4.8218e-23
3.6019e-07 4.9255e-23
3.6049e-07 5.1474e-23
3.6079e-07 5.3827e-23
3.6109e-07 5.4787e-23
3.6139e-07 5.405e-23
3.6169e-07 5.2809e-23
3.6199e-07 5.2384e-23
3.623e-07 5.2865e-23
3.626e-07 5.3352e-23
3.629e-07 5.3424e-23
3.632e-07 5.3021e-23
3.6351e-07 5.2027e-23
3.6381e-07 5.1362e-23
3.6411e-07 5.2312e-23
3.6442e-07 5.465e-23
3.6472e-07 5.7449e-23
3.6502e-07 6.0195e-23
3.6533e-07 6.1883e-23
3.6563e-07 6.133e-23
3.6594e-07 5.8708e-23
3.6624e-07 5.5379e-23
3.6655e-07 5.3276e-23
3.6686e-07 5.3655e-23
3.6716e-07 5.5777e-23
3.6747e-07 5.746e-23
3.6777e-07 5.7633e-23
3.6808e-07 5.6906e-23
3.6839e-07 5.5863e-23
3.687e-07 5.5046e-23
3.69e-07 5.5177e-23
3.6931e-07 5.5761e-23
3.6962e-07 5.5935e-23
3.6993e-07 5.6076e-23
3.7024e-07 5.6171e-23
3.7054e-07 5.5242e-23
3.7085e-07 5.4265e-23
3.7116e-07 5.5221e-23
3.7147e-07 5.7822e-23
3.7178e-07 6.0833e-23
3.7209e-07 6.2858e-23
3.724e-07 6.2992e-23
3.7271e-07 6.1495e-23
3.7302e-07 5.9187e-23
3.7334e-07 5.726e-23
3.7365e-07 5.668e-23
3.7396e-07 5.6796e-23
3.7427e-07 5.5889e-23
3.7458e-07 5.4612e-23
3.749e-07 5.5565e-23
3.7521e-07 5.8834e-23
3.7552e-07 6.1587e-23
3.7583e-07 6.3641e-23
3.7615e-07 6.6117e-23
3.7646e-07 6.6946e-23
3.7678e-07 6.4343e-23
3.7709e-07 6.0076e-23
3.7741e-07 5.6642e-23
3.7772e-07 5.5146e-23
3.7804e-07 5.4787e-23
3.7835e-07 5.4705e-23
3.7867e-07 5.5292e-23
3.7898e-07 5.6971e-23
3.793e-07 6.0135e-23
3.7961e-07 6.3868e-23
3.7993e-07 6.539e-23
3.8025e-07 6.4708e-23
3.8057e-07 6.3807e-23
3.8088e-07 6.2757e-23
3.812e-07 6.151e-23
3.8152e-07 6.0791e-23
3.8184e-07 6.0616e-23
3.8216e-07 5.9787e-23
3.8247e-07 5.8068e-23
3.8279e-07 5.7203e-23
3.8311e-07 5.7765e-23
3.8343e-07 5.9044e-23
3.8375e-07 6.0607e-23
3.8407e-07 6.1872e-23
3.8439e-07 6.3121e-23
3.8471e-07 6.4089e-23
3.8503e-07 6.3519e-23
3.8536e-07 6.2582e-23
3.8568e-07 6.2391e-23
3.86e-07 6.088e-23
3.8632e-07 5.8541e-23
3.8664e-07 5.8279e-23
3.8697e-07 6.0032e-23
3.8729e-07 6.1818e-23
3.8761e-07 6.2754e-23
3.8793e-07 6.2741e-23
3.8826e-07 6.1756e-23
3.8858e-07 6.1387e-23
3.8891e-07 6.2911e-23
3.8923e-07 6.4218e-23
3.8956e-07 6.3648e-23
3.8988e-07 6.3067e-23
3.9021e-07 6.3335e-23
3.9053e-07 6.2981e-23
3.9086e-07 6.2289e-23
3.9118e-07 6.2763e-23
3.9151e-07 6.5006e-23
3.9184e-07 6.69e-23
3.9216e-07 6.587e-23
3.9249e-07 6.3966e-23
3.9282e-07 6.2292e-23
3.9315e-07 5.9409e-23
3.9347e-07 5.78e-23
3.938e-07 5.8019e-23
3.9413e-07 5.7581e-23
3.9446e-07 5.7296e-23
3.9479e-07 5.8642e-23
3.9512e-07 6.1755e-23
3.9545e-07 6.4914e-23
3.9578e-07 6.5989e-23
3.9611e-07 6.4502e-23
3.9644e-07 6.1407e-23
3.9677e-07 5.8889e-23
3.971e-07 5.8449e-23
3.9743e-07 6.0194e-23
3.9776e-07 6.406e-23
3.9809e-07 6.8168e-23
3.9843e-07 6.9261e-23
3.9876e-07 6.5674e-23
3.9909e-07 6.1367e-23
3.9942e-07 6.1475e-23
3.9976e-07 6.5527e-23
4.0009e-07 6.9117e-23
4.0042e-07 6.9671e-23
4.0076e-07 6.8678e-23
4.0109e-07 6.7508e-23
4.0143e-07 6.5763e-23
4.0176e-07 6.3289e-23
4.021e-07 6.0323e-23
4.0243e-07 5.7738e-23
4.0277e-07 5.6353e-23
4.031e-07 5.608e-23
4.0344e-07 5.7456e-23
4.0378e-07 6.0503e-23
4.0411e-07 6.2255e-23
4.0445e-07 6.2194e-23
4.0479e-07 6.3949e-23
4.0513e-07 6.6334e-23
4.0546e-07 6.4576e-23
4.058e-07 6.0455e-23
4.0614e-07 5.791e-23
4.0648e-07 5.5441e-23
4.0682e-07 5.257e-23
4.0716e-07 5.191e-23
4.075e-07 5.4744e-23
4.0784e-07 6.0807e-23
4.0818e-07 6.754e-23
4.0852e-07 7.0254e-23
4.0886e-07 6.7665e-23
4.092e-07 6.4961e-23
4.0954e-07 6.407e-23
4.0988e-07 6.4032e-23
4.1023e-07 6.6477e-23
4.1057e-07 6.7975e-23
4.1091e-07 6.4701e-23
4.1125e-07 5.9519e-23
4.116e-07 5.6185e-23
4.1194e-07 5.5337e-23
4.1228e-07 5.6742e-23
4.1263e-07 6.1188e-23
4.1297e-07 6.8028e-23
4.1332e-07 7.3689e-23
4.1366e-07 7.2287e-23
4.1401e-07 6.4603e-23
4.1435e-07 5.9527e-23
4.147e-07 5.9704e-23
4.1504e-07 5.96e-23
4.1539e-07 5.6176e-23
4.1574e-07 5.2534e-23
4.1608e-07 5.1442e-23
4.1643e-07 5.179e-23
4.1678e-07 5.2923e-23
4.1712e-07 5.4804e-23
4.1747e-07 5.6316e-23
4.1782e-07 5.7431e-23
4.1817e-07 5.8822e-23
4.1852e-07 5.9175e-23
4.1887e-07 5.8339e-23
4.1922e-07 5.9362e-23
4.1957e-07 6.154e-23
4.1992e-07 6.2221e-23
4.2027e-07 6.2087e-23
4.2062e-07 6.2417e-23
4.2097e-07 6.223e-23
4.2132e-07 6.0909e-23
4.2167e-07 6.1456e-23
4.2202e-07 6.3492e-23
4.2238e-07 6.3197e-23
4.2273e-07 6.1429e-23
4.2308e-07 6.1115e-23
4.2343e-07 6.267e-23
4.2379e-07 6.4314e-23
4.2414e-07 6.5658e-23
4.2449e-07 6.6014e-23
4.2485e-07 6.2892e-23
4.252e-07 5.7773e-23
4.2556e-07 5.3428e-23
4.2591e-07 4.9737e-23
4.2627e-07 4.7376e-23
4.2662e-07 4.8234e-23
4.2698e-07 5.3216e-23
4.2733e-07 5.9011e-23
4.2769e-07 6.1921e-23
4.2805e-07 6.2088e-23
4.2841e-07 5.9448e-23
4.2876e-07 5.4874e-23
4.2912e-07 5.0299e-23
4.2948e-07 4.6798e-23
4.2984e-07 4.7214e-23
4.302e-07 5.2985e-23
4.3055e-07 5.9566e-23
4.3091e-07 6.1997e-23
4.3127e-07 6.046e-23
4.3163e-07 5.6793e-23
4.3199e-07 5.1926e-23
4.3235e-07 4.8173e-23
4.3271e-07 4.8203e-23
4.3307e-07 5.1861e-23
4.3344e-07 5.6402e-23
4.338e-07 5.8726e-23
4.3416e-07 5.8338e-23
4.3452e-07 6.0953e-23
4.3488e-07 6.7504e-23
4.3525e-07 6.9063e-23
4.3561e-07 6.4344e-23
4.3597e-07 5.9867e-23
4.3634e-07 5.6668e-23
4.367e-07 5.2591e-23
4.3707e-07 4.7653e-23
4.3743e-07 4.3813e-23
4.3779e-07 4.2077e-23
4.3816e-07 4.4318e-23
4.3853e-07 5.3327e-23
4.3889e-07 6.4273e-23
4.3926e-07 6.8709e-23
4.3962e-07 6.5999e-23
4.3999e-07 5.9487e-23
4.4036e-07 5.1664e-23
4.4073e-07 4.6322e-23
4.4109e-07 4.3606e-23
4.4146e-07 4.0828e-23
4.4183e-07 3.9423e-23
4.422e-07 4.0539e-23
4.4257e-07 4.2663e-23
4.4294e-07 4.473e-23
4.4331e-07 4.6213e-23
4.4368e-07 4.7763e-23
4.4405e-07 5.1564e-23
4.4442e-07 5.8917e-23
4.4479e-07 6.4208e-23
4.4516e-07 6.1594e-23
4.4553e-07 5.556e-23
4.459e-07 5.0719e-23
4.4627e-07 4.6398e-23
4.4664e-07 4.3947e-23
4.4702e-07 4.6146e-23
4.4739e-07 5.4302e-23
4.4776e-07 6.5238e-23
4.4814e-07 6.9061e-23
4.4851e-07 6.2388e-23
4.4889e-07 5.3886e-23
4.4926e-07 4.8083e-23
4.4963e-07 4.4307e-23
4.5001e-07 4.3984e-23
4.5038e-07 4.6098e-23
4.5076e-07 4.6804e-23
4.5114e-07 4.5508e-23
4.5151e-07 4.518e-23
4.5189e-07 4.6697e-23
4.5227e-07 4.7927e-23
4.5264e-07 4.7628e-23
4.5302e-07 4.6654e-23
4.534e-07 4.5072e-23
4.5378e-07 4.1974e-23
4.5416e-07 4.1076e-23
4.5454e-07 4.4017e-23
4.5491e-07 4.5715e-23
4.5529e-07 4.4584e-23
4.5567e-07 4.3651e-23
4.5605e-07 4.2419e-23
4.5643e-07 3.9261e-23
4.5682e-07 3.8341e-23
4.572e-07 4.3068e-23
4.5758e-07 4.9115e-23
4.5796e-07 5.128e-23
4.5834e-07 4.9553e-23
4.5872e-07 4.5852e-23
4.5911e-07 4.2967e-23
4.5949e-07 4.3379e-23
4.5987e-07 4.6079e-23
4.6026e-07 4.8832e-23
4.6064e-07 4.897e-23
4.6102e-07 4.6256e-23
4.6141e-07 4.2829e-23
4.6179e-07 4.0132e-23
4.6218e-07 4.0533e-23
4.6256e-07 4.6471e-23
4.6295e-07 5.4125e-23
4.6334e-07 5.5627e-23
4.6372e-07 5.1175e-23
4.6411e-07 4.6779e-23
4.645e-07 4.3827e-23
4.6489e-07 4.011e-23
4.6527e-07 3.5192e-23
4.6566e-07 3.1622e-23
4.6605e-07 3.2388e-23
4.6644e-07 3.7592e-23
4.6683e-07 4.2736e-23
4.6722e-07 4.3804e-23
4.6761e-07 4.2812e-23
4.68e-07 4.1063e-23
4.6839e-07 3.8033e-23
4.6878e-07 3.5753e-23
4.6917e-07 3.4164e-23
4.6956e-07 3.2989e-23
4.6995e-07 3.3773e-23
4.7034e-07 3.4659e-23
4.7074e-07 3.3701e-23
4.7113e-07 3.2885e-23
4.7152e-07 3.3898e-23
4.7192e-07 3.4981e-23
4.7231e-07 3.4718e-23
4.727e-07 3.4801e-23
4.731e-07 3.7602e-23
4.7349e-07 4.3884e-23
4.7389e-07 4.8954e-23
4.7428e-07 4.9323e-23
4.7468e-07 4.8123e-23
4.7507e-07 4.5904e-23
4.7547e-07 4.2013e-23
4.7587e-07 3.8479e-23
4.7626e-07 3.6122e-23
4.7666e-07 3.4499e-23
4.7706e-07 3.3574e-23
4.7746e-07 3.3453e-23
4.7786e-07 3.3218e-23
4.7825e-07 3.2895e-23
4.7865e-07 3.3859e-23
4.7905e-07 3.7004e-23
4.7945e-07 4.0666e-23
4.7985e-07 4.0866e-23
4.8025e-07 3.7963e-23
4.8065e-07 3.6244e-23
4.8105e-07 3.6478e-23
4.8146e-07 3.5941e-23
4.8186e-07 3.3212e-23
4.8226e-07 3.0063e-23
4.8266e-07 2.7563e-23
4.8306e-07 2.5457e-23
4.8347e-07 2.4599e-23
4.8387e-07 2.5358e-23
4.8427e-07 2.6812e-23
4.8468e-07 2.7991e-23
4.8508e-07 2.8406e-23
4.8549e-07 2.8632e-23
4.8589e-07 2.8799e-23
4.863e-07 2.796e-23
4.867e-07 2.6673e-23
4.8711e-07 2.6552e-23
4.8752e-07 2.8455e-23
4.8792e-07 3.3143e-23
4.8833e-07 3.9993e-23
4.8874e-07 4.4093e-23
4.8914e-07 4.2343e-23
4.8955e-07 3.8131e-23
4.8996e-07 3.4323e-23
4.9037e-07 3.0833e-23
4.9078e-07 2.7126e-23
4.9119e-07 2.4599e-23
4.916e-07 2.4905e-23
4.9201e-07 2.6006e-23
4.9242e-07 2.6012e-23
4.9283e-07 2.6856e-23
4.9324e-07 2.9002e-23
4.9365e-07 3.0941e-23
4.9406e-07 3.301e-23
4.9448e-07 3.4597e-23
4.9489e-07 3.398e-23
4.953e-07 3.2849e-23
4.9571e-07 3.3e-23
4.9613e-07 3.3279e-23
4.9654e-07 3.2113e-23
4.9696e-07 2.8905e-23
4.9737e-07 2.5172e-23
4.9779e-07 2.2474e-23
4.982e-07 2.0522e-23
4.9862e-07 1.9046e-23
4.9903e-07 1.7733e-23
4.9945e-07 1.6611e-23
4.9986e-07 1.6273e-23
5.0028e-07 1.6795e-23
5.007e-07 1.7993e-23
5.0112e-07 1.9173e-23
5.0154e-07 2.0257e-23
5.0195e-07 2.259e-23
5.0237e-07 2.5961e-23
5.0279e-07 2.7396e-23
5.0321e-07 2.549e-23
5.0363e-07 2.4011e-23
5.0405e-07 2.6648e-23
5.0447e-07 3.1113e-23
5.0489e-07 3.229e-23
5.0531e-07 2.8923e-23
5.0573e-07 2.513e-23
5.0616e-07 2.3717e-23
5.0658e-07 2.293e-23
5.07e-07 2.1432e-23
5.0742e-07 2.0285e-23
5.0785e-07 2.0586e-23
5.0827e-07 2.2112e-23
5.087e-07 2.4184e-23
5.0912e-07 2.6156e-23
5.0954e-07 2.7362e-23
5.0997e-07 2.7211e-23
5.104e-07 2.6123e-23
5.1082e-07 2.5378e-23
5.1125e-07 2.4729e-23
5.1167e-07 2.4064e-23
5.121e-07 2.4482e-23
5.1253e-07 2.4271e-23
5.1296e-07 2.2067e-23
5.1338e-07 1.9778e-23
5.1381e-07 1.8495e-23
5.1424e-07 1.7758e-23
5.1467e-07 1.6925e-23
5.151e-07 1.6108e-23
5.1553e-07 1.5699e-23
5.1596e-07 1.5391e-23
5.1639e-07 1.4786e-23
5.1682e-07 1.3964e-23
5.1725e-07 1.3744e-23
5.1768e-07 1.4897e-23
5.1811e-07 1.7472e-23
5.1855e-07 1.9376e-23
5.1898e-07 1.9378e-23
5.1941e-07 1.9297e-23
5.1984e-07 1.9234e-23
5.2028e-07 1.8287e-23
5.2071e-07 1.6854e-23
5.2115e-07 1.562e-23
5.2158e-07 1.4992e-23
5.2202e-07 1.4822e-23
5.2245e-07 1.5095e-23
5.2289e-07 1.5437e-23
5.2332e-07 1.5224e-23
5.2376e-07 1.5376e-23
5.242e-07 1.7013e-23
5.2464e-07 2.0069e-23
5.2507e-07 2.2821e-23
5.2551e-07 2.3313e-23
5.2595e-07 2.2589e-23
5.2639e-07 2.1751e-23
5.2683e-07 1.991e-23
5.2727e-07 1.8334e-23
5.2771e-07 1.8243e-23
5.2815e-07 1.7856e-23
5.2859e-07 1.661e-23
5.2903e-07 1.5528e-23
5.2947e-07 1.504e-23
5.2991e-07 1.5466e-23
5.3035e-07 1.5995e-23
5.308e-07 1.5833e-23
5.3124e-07 1.585e-23
5.3168e-07 1.6214e-23
5.3213e-07 1.6536e-23
5.3257e-07 1.6509e-23
5.3301e-07 1.5608e-23
5.3346e-07 1.4249e-23
5.339e-07 1.3259e-23
5.3435e-07 1.2401e-23
5.3479e-07 1.0932e-23
5.3524e-07 9.3502e-24
5.3569e-07 8.8926e-24
5.3613e-07 9.151e-24
5.3658e-07 9.0605e-24
5.3703e-07 8.7705e-24
5.3748e-07 9.2104e-24
5.3793e-07 1.0837e-23
5.3837e-07 1.2453e-23
5.3882e-07 1.2984e-23
5.3927e-07 1.2535e-23
5.3972e-07 1.1084e-23
5.4017e-07 9.4009e-24
5.4062e-07 8.7855e-24
5.4107e-07 9.8581e-24
5.4153e-07 1.2015e-23
5.4198e-07 1.3857e-23
5.4243e-07 1.4877e-23
5.4288e-07 1.529e-23
5.4334e-07 1.4993e-23
5.4379e-07 1.3954e-23
5.4424e-07 1.3256e-23
5.447e-07 1.4105e-23
5.4515e-07 1.4976e-23
5.4561e-07 1.3909e-23
5.4606e-07 1.2136e-23
5.4652e-07 1.1289e-23
5.4697e-07 1.1924e-23
5.4743e-07 1.3326e-23
5.4788e-07 1.3813e-23
5.4834e-07 1.3516e-23
5.488e-07 1.3578e-23
5.4926e-07 1.3437e-23
5.4972e-07 1.2304e-23
5.5017e-07 1.111e-23
5.5063e-07 1.0294e-23
5.5109e-07 9.6319e-24
5.5155e-07 9.445e-24
5.5201e-07 9.8281e-24
5.5247e-07 1.0716e-23
5.5293e-07 1.1436e-23
5.5339e-07 1.1149e-23
5.5386e-07 1.0335e-23
5.5432e-07 9.4571e-24
5.5478e-07 8.3919e-24
5.5524e-07 7.4097e-24
5.5571e-07 6.7311e-24
5.5617e-07 6.5508e-24
5.5663e-07 6.6859e-24
5.571e-07 6.6602e-24
5.5756e-07 6.7056e-24
5.5803e-07 6.8147e-24
5.5849e-07 6.4226e-24
5.5896e-07 5.7258e-24
5.5943e-07 5.4071e-24
5.5989e-07 5.6368e-24
5.6036e-07 6.1209e-24
5.6083e-07 6.59e-24
5.613e-07 7.0351e-24
5.6176e-07 7.3787e-24
5.6223e-07 7.8012e-24
5.627e-07 8.6983e-24
5.6317e-07 1.02e-23
5.6364e-07 1.1537e-23
5.6411e-07 1.2119e-23
5.6458e-07 1.2029e-23
5.6505e-07 1.0975e-23
5.6552e-07 9.1939e-24
5.66e-07 7.2672e-24
5.6647e-07 6.0851e-24
5.6694e-07 6.2702e-24
5.6741e-07 7.2686e-24
5.6789e-07 8.2126e-24
5.6836e-07 8.3752e-24
5.6883e-07 7.8975e-24
5.6931e-07 7.6893e-24
5.6978e-07 8.2248e-24
5.7026e-07 9.4424e-24
5.7074e-07 1.0448e-23
5.7121e-07 1.044e-23
5.7169e-07 1.0131e-23
5.7216e-07 9.5525e-24
5.7264e-07 8.4099e-24
5.7312e-07 7.3598e-24
5.736e-07 6.4761e-24
5.7408e-07 5.6508e-24
5.7456e-07 5.1473e-24
5.7503e-07 4.8216e-24
5.7551e-07 4.3069e-24
5.7599e-07 3.7085e-24
5.7647e-07 3.4291e-24
5.7696e-07 3.4711e-24
5.7744e-07 3.6908e-24
5.7792e-07 4.17e-24
5.784e-07 5.0049e-24
5.7888e-07 5.7675e-24
5.7937e-07 5.9406e-24
5.7985e-07 5.7711e-24
5.8033e-07 5.3856e-24
5.8082e-07 4.6567e-24
5.813e-07 4.0261e-24
5.8179e-07 3.7355e-24
5.8227e-07 3.5859e-24
5.8276e-07 3.6396e-24
5.8324e-07 3.8301e-24
5.8373e-07 4.0753e-24
5.8422e-07 4.669e-24
5.8471e-07 5.52e-24
5.8519e-07 6.0884e-24
5.8568e-07 6.0685e-24
5.8617e-07 5.722e-24
5.8666e-07 5.4116e-24
5.8715e-07 5.0282e-24
5.8764e-07 4.5554e-24
5.8813e-07 4.2698e-24
5.8862e-07 4.3564e-24
5.8911e-07 4.8491e-24
5.896e-07 5.5121e-24
5.9009e-07 6.1439e-24
5.9059e-07 6.3744e-24
5.9108e-07 6.4628e-24
5.9157e-07 7.1287e-24
5.9206e-07 7.8093e-24
5.9256e-07 7.866e-24
5.9305e-07 7.3284e-24
5.9355e-07 6.087e-24
5.9404e-07 4.781e-24
5.9454e-07 3.9673e-24
5.9503e-07 3.3843e-24
5.9553e-07 3.0428e-24
5.9603e-07 3.0577e-24
5.9652e-07 3.1852e-24
5.9702e-07 3.3069e-24
5.9752e-07 3.4138e-24
5.9802e-07 3.5069e-24
5.9852e-07 3.7484e-24
5.9902e-07 4.0972e-24
5.9952e-07 4.4606e-24
6.0002e-07 4.7864e-24
6.0052e-07 4.8571e-24
6.0102e-07 4.6988e-24
6.0152e-07 4.4418e-24
6.0202e-07 3.9826e-24
6.0252e-07 3.3293e-24
6.0303e-07 2.6173e-24
6.0353e-07 2.0475e-24
6.0403e-07 1.7446e-24
6.0454e-07 1.683e-24
6.0504e-07 1.8354e-24
6.0555e-07 1.9332e-24
6.0605e-07 1.8463e-24
6.0656e-07 1.821e-24
6.0706e-07 1.8925e-24
6.0757e-07 1.9991e-24
6.0808e-07 2.0691e-24
6.0858e-07 2.0332e-24
6.0909e-07 1.9872e-24
6.096e-07 1.9874e-24
6.1011e-07 2.053e-24
6.1062e-07 2.3874e-24
6.1113e-07 3.1496e-24
6.1164e-07 4.073e-24
6.1215e-07 4.9209e-24
6.1266e-07 5.0772e-24
6.1317e-07 4.2662e-24
6.1368e-07 3.6079e-24
6.1419e-07 3.3868e-24
6.147e-07 3.103e-24
6.1522e-07 3.0445e-24
6.1573e-07 3.3895e-24
6.1624e-07 3.889e-24
6.1676e-07 4.1093e-24
6.1727e-07 3.8418e-24
6.1779e-07 3.3208e-24
6.183e-07 2.7291e-24
6.1882e-07 2.4049e-24
6.1933e-07 2.5237e-24
6.1985e-07 2.8967e-24
6.2037e-07 3.2603e-24
6.2089e-07 3.1773e-24
6.214e-07 2.6557e-24
6.2192e-07 2.2482e-24
6.2244e-07 2.1902e-24
6.2296e-07 2.2978e-24
6.2348e-07 2.3723e-24
6.24e-07 2.3295e-24
6.2452e-07 2.2625e-24
6.2504e-07 2.2123e-24
6.2556e-07 2.0829e-24
6.2609e-07 1.9126e-24
6.2661e-07 1.775e-24
6.2713e-07 1.6341e-24
6.2765e-07 1.4785e-24
6.2818e-07 1.3816e-24
6.287e-07 1.3633e-24
6.2923e-07 1.3053e-24
6.2975e-07 1.1595e-24
6.3028e-07 1.0955e-24
6.308e-07 1.2e-24
6.3133e-07 1.3405e-24
6.3185e-07 1.4048e-24
6.3238e-07 1.3495e-24
6.3291e-07 1.302e-24
6.3344e-07 1.3968e-24
6.3397e-07 1.4855e-24
6.3449e-07 1.4395e-24
6.3502e-07 1.3721e-24
6.3555e-07 1.4116e-24
6.3608e-07 1.4999e-24
6.3661e-07 1.526e-24
6.3715e-07 1.5481e-24
6.3768e-07 1.5657e-24
6.3821e-07 1.4971e-24
6.3874e-07 1.4161e-24
6.3927e-07 1.4426e-24
6.3981e-07 1.5299e-24
6.4034e-07 1.59e-24
6.4088e-07 1.6355e-24
6.4141e-07 1.7536e-24
6.4195e-07 2.0049e-24
6.4248e-07 2.1923e-24
6.4302e-07 2.1511e-24
6.4355e-07 1.9496e-24
6.4409e-07 1.6741e-24
6.4463e-07 1.5666e-24
6.4516e-07 1.6814e-24
6.457e-07 1.9198e-24
6.4624e-07 2.3224e-24
6.4678e-07 2.6632e-24
6.4732e-07 2.6562e-24
6.4786e-07 2.249e-24
6.484e-07 1.6525e-24
6.4894e-07 1.2896e-24
6.4948e-07 1.2349e-24
6.5003e-07 1.3117e-24
6.5057e-07 1.4016e-24
6.5111e-07 1.4212e-24
6.5165e-07 1.3311e-24
6.522e-07 1.1965e-24
6.5274e-07 1.0891e-24
6.5329e-07 9.9617e-25
6.5383e-07 9.4083e-25
6.5438e-07 9.6002e-25
6.5492e-07 9.9658e-25
6.5547e-07 1.0071e-24
6.5601e-07 9.6976e-25
6.5656e-07 8.5996e-25
6.5711e-07 7.5509e-25
6.5766e-07 7.0892e-25
6.5821e-07 6.9797e-25
6.5876e-07 7.1554e-25
6.5931e-07 7.301e-25
6.5986e-07 6.9278e-25
6.6041e-07 6.0913e-25
6.6096e-07 5.2963e-25
6.6151e-07 4.6559e-25
6.6206e-07 4.1923e-25
6.6261e-07 3.9784e-25
6.6317e-07 3.9491e-25
6.6372e-07 4.0661e-25
6.6427e-07 4.5334e-25
6.6483e-07 5.3544e-25
6.6538e-07 6.2773e-25
6.6594e-07 6.5864e-25
6.6649e-07 4.5764e-25
6.6705e-07 1.41e-25
6.676e-07 -0
6.6816e-07 -0
6.6872e-07 -0
6.6928e-07 -0
6.6983e-07 -0
6.7039e-07 -0
6.7095e-07 -0
6.7151e-07 -0
6.7207e-07 -0
6.7263e-07 -0
6.7319e-07 -0
6.7376e-07 -0
6.7432e-07 -0
6.7488e-07 -0
6.7544e-07 -0
6.7601e-07 -0
6.7657e-07 -0
6.7714e-07 -0
6.777e-07 -0
6.7827e-07 -0
6.7883e-07 -0
6.794e-07 -0
6.7996e-07 -0
6.8053e-07 -0
6.811e-07 -0
6.8167e-07 -0
6.8224e-07 -0
6.8281e-07 -0
6.8338e-07 -0
6.8395e-07 -0
6.8452e-07 -0
6.8509e-07 -0
6.8566e-07 -0
6.8623e-07 -0
6.868e-07 -0
6.8738e-07 -0
6.8795e-07 -0
6.8852e-07 -0
6.891e-07 -0
6.8967e-07 -0
6.9025e-07 -0
6.9082e-07 -0
6.914e-07 -0
6.9198e-07 -0
6.9255e-07 -0
6.9313e-07 -0
6.9371e-07 -0
6.9429e-07 -0
6.9487e-07 -0
6.9545e-07 -0
6.9603e-07 -0
6.9661e-07 -0
6.9719e-07 -0
6.9777e-07 -0
6.9835e-07 -0
6.9894e-07 -0
6.9952e-07 -0
7.001e-07 -0
7.0069e-07 -0
7.0127e-07 -0
7.0186e-07 -0
7.0244e-07 -0
7.0303e-07 -0
7.0361e-07 -0
7.042e-07 -0
7.0479e-07 -0
7.0538e-07 -0
7.0596e-07 -0
7.0655e-07 -0
7.0714e-07 -0
7.0773e-07 -0
7.0832e-07 -0
7.0891e-07 -0
7.0951e-07 -0
7.101e-07 -0
7.1069e-07 -0
7.1128e-07 -0
7.1188e-07 -0
7.1247e-07 -0
7.1306e-07 -0
7.1366e-07 -0
7.1425e-07 -0
7.1485e-07 -0
7.1545e-07 -0
7.1604e-07 -0
7.1664e-07 -0
7.1724e-07 -0
7.1784e-07 -0
7.1844e-07 -0
7.1904e-07 -0
7.1964e-07 -0
7.2024e-07 -0
7.2084e-07 -0
7.2144e-07 -0
7.2204e-07 -0
7.2264e-07 -0
7.2324e-07 -0
7.2385e-07 -0
7.2445e-07 -0
7.2506e-07 -0
7.2566e-07 -0
7.2627e-07 -0
7.2687e-07 -0
7.2748e-07 -0
7.2809e-07 -0
7.2869e-07 -0
7.293e-07 -0
7.2991e-07 -0
7.3052e-07 -0
7.3113e-07 -0
7.3174e-07 -0
7.3235e-07 -0
7.3296e-07 -0
7.3357e-07 -0
7.3418e-07 -0
7.348e-07 -0
7.3541e-07 -0
7.3602e-07 -0
7.3664e-07 -0
7.3725e-07 -0
7.3787e-07 -0
7.3848e-07 -0
7.391e-07 -0
7.3971e-07 -0
7.4033e-07 -0
7.4095e-07 -0
7.4157e-07 -0
7.4218e-07 -0
7.428e-07 -0
7.4342e-07 -0
7.4404e-07 -0
7.4466e-07 -0
7.4529e-07 -0
7.4591e-07 -0
7.4653e-07 -0
7.4715e-07 -0
7.4778e-07 -0
7.484e-07 -0
7.4902e-07 -0
7.4965e-07 -0
7.5027e-07 -0
7.509e-07 -0
7.5153e-07 -0
7.5215e-07 -0
7.5278e-07 -0
7.5341e-07 -0
7.5404e-07 -0
7.5467e-07 -0
7.553e-07 -0
7.5593e-07 -0
7.5656e-07 -0
7.5719e-07 -0
7.5782e-07 -0
7.5845e-07 -0
7.5908e-07 -0
7.5972e-07 -0
7.6035e-07 -0
7.6099e-07 -0
7.6162e-07 -0
7.6226e-07 -0
7.6289e-07 -0
7.6353e-07 -0
7.6417e-07 -0
7.648e-07 -0
7.6544e-07 -0
7.6608e-07 -0
7.6672e-07 -0
7.6736e-07 -0
7.68e-07 -0
7.6864e-07 -0
7.6928e-07 -0
7.6992e-07 -0
7.7056e-07 -0
7.7121e-07 -0
7.7185e-07 -0
7.7249e-07 -0
7.7314e-07 -0
7.7378e-07 -0
7.7443e-07 -0
7.7508e-07 -0
7.7572e-07 -0
7.7637e-07 -0
7.7702e-07 -0
7.7766e-07 -0
7.7831e-07 -0
7.7896e-07 -0
7.7961e-07 -0
7.8026e-07 -0
7.8091e-07 -0
7.8157e-07 -0
7.8222e-07 -0
7.8287e-07 -0
7.8352e-07 -0
7.8418e-07 -0
7.8483e-07 -0
7.8549e-07 -0
7.8614e-07 -0
7.868e-07 -0
7.8745e-07 -0
7.8811e-07 -0
7.8877e-07 -0
7.8943e-07 -0
7.9008e-07 -0
7.9074e-07 -0
7.914e-07 -0
7.9206e-07 -0
7.9272e-07 -0
7.9339e-07 -0
7.9405e-07 -0
7.9471e-07 -0
7.9537e-07 -0
7.9604e-07 -0
7.967e-07 -0
7.9736e-07 -0
7.9803e-07 -0
7.987e-07 -0
7.9936e-07 -0
8.0003e-07 -0
8.007e-07 -0
8.0136e-07 -0
8.0203e-07 -0
8.027e-07 -0
8.0337e-07 -0
8.0404e-07 -0
8.0471e-07 -0
8.0538e-07 -0
8.0606e-07 -0
8.0673e-07 -0
8.074e-07 -0
8.0807e-07 -0
8.0875e-07 -0
8.0942e-07 -0
8.101e-07 -0
8.1077e-07 -0
8.1145e-07 -0
8.1213e-07 -0
8.1281e-07 -0
8.1348e-07 -0
8.1416e-07 -0
8.1484e-07 -0
8.1552e-07 -0
8.162e-07 -0
8.1688e-07 -0
8.1756e-07 -0
8.1825e-07 -0
8.1893e-07 -0
8.1961e-07 -0
8.203e-07 -0
8.2098e-07 -0
8.2166e-07 -0
8.2235e-07 -0
8.2304e-07 -0
8.2372e-07 -0
8.2441e-07 -0
8.251e-07 -0
8.2579e-07 -0
8.2647e-07 -0
8.2716e-07 -0
8.2785e-07 -0
8.2854e-07 -0
8.2924e-07 -0
8.2993e-07 -0
8.3062e-07 -0
8.3131e-07 -0
8.3201e-07 -0
8.327e-07 -0
8.334e-07 -0
8.3409e-07 -0
8.3479e-07 -0
8.3548e-07 -0
8.3618e-07 -0
8.3688e-07 -0
8.3758e-07 -0
8.3827e-07 -0
8.3897e-07 -0
8.3967e-07 -0
8.4037e-07 -0
8.4107e-07 -0
8.4178e-07 -0
8.4248e-07 -0
8.4318e-07 -0
8.4388e-07 -0
8.4459e-07 -0
8.4529e-07 -0
8.46e-07 -0
8.467e-07 -0
8.4741e-07 -0
8.4812e-07 -0
8.4883e-07 -0
8.4953e-07 -0
8.5024e-07 -0
8.5095e-07 -0
8.5166e-07 -0
8.5237e-07 -0
8.5308e-07 -0
8.5379e-07 -0
8.5451e-07 -0
8.5522e-07 -0
8.5593e-07 -0
8.5665e-07 -0
8.5736e-07 -0
8.5808e-07 -0
8.5879e-07 -0
8.5951e-07 -0
8.6023e-07 -0
8.6094e-07 -0
8.6166e-07 -0
8.6238e-07 -0
8.631e-07 -0
8.6382e-07 -0
8.6454e-07 -0
8.6526e-07 -0
8.6598e-07 -0
8.6671e-07 -0
8.6743e-07 -0
8.6815e-07 -0
8.6888e-07 -0
8.696e-07 -0
8.7033e-07 -0
8.7105e-07 -0
8.7178e-07 -0
8.7251e-07 -0
8.7324e-07 -0
8.7396e-07 -0
8.7469e-07 -0
8.7542e-07 -0
8.7615e-07 -0
8.7688e-07 -0
8.7762e-07 -0
8.7835e-07 -0
8.7908e-07 -0
8.7981e-07 -0
8.8055e-07 -0
8.8128e-07 -0
8.8202e-07 -0
8.8275e-07 -0
8.8349e-07 -0
8.8423e-07 -0
8.8496e-07 -0
8.857e-07 -0
8.8644e-07 -0
8.8718e-07 -0
8.8792e-07 -0
8.8866e-07 -0
8.894e-07 -0
8.9015e-07 -0
8.9089e-07 -0
8.9163e-07 -0
8.9237e-07 -0
8.9312e-07 -0
8.9386e-07 -0
8.9461e-07 -0
8.9536e-07 -0
8.961e-07 -0
8.9685e-07 -0
8.976e-07 -0
8.9835e-07 -0
8.991e-07 -0
8.9985e-07 -0
9.006e-07 -0
9.0135e-07 -0
9.021e-07 -0
9.0285e-07 -0
9.0361e-07 -0
9.0436e-07 -0
9.0512e-07 -0
9.0587e-07 -0
9.0663e-07 -0
9.0738e-07 -0
9.0814e-07 -0
9.089e-07 -0
9.0966e-07 -0
9.1041e-07 -0
9.1117e-07 -0
9.1193e-07 -0
9.1269e-07 -0
9.1346e-07 -0
9.1422e-07 -0
9.1498e-07 -0
9.1574e-07 -0
9.1651e-07 -0
9.1727e-07 -0
9.1804e-07 -0
9.188e-07 -0
9.1957e-07 -0
9.2034e-07 -0
9.211e-07 -0
9.2187e-07 -0
9.2264e-07 -0
9.2341e-07 -0
9.2418e-07 -0
9.2495e-07 -0
9.2572e-07 -0
9.265e-07 -0
9.2727e-07 -0
9.2804e-07 -0
9.2882e-07 -0
9.2959e-07 -0
9.3037e-07 -0
9.3114e-07 -0
9.3192e-07 -0
9.327e-07 -0
9.3348e-07 -0
9.3426e-07 -0
9.3503e-07 -0
9.3581e-07 -0
9.366e-07 -0
9.3738e-07 -0
9.3816e-07 -0
9.3894e-07 -0
9.3972e-07 -0
9.4051e-07 -0
9.4129e-07 -0
9.4208e-07 -0
9.4286e-07 -0
9.4365e-07 -0
9.4444e-07 -0
9.4523e-07 -0
9.4601e-07 -0
9.468e-07 -0
9.4759e-07 -0
9.4838e-07 -0
9.4918e-07 -0
9.4997e-07 -0
9.5076e-07 -0
9.5155e-07 -0
9.5235e-07 -0
9.5314e-07 -0
9.5394e-07 -0
9.5473e-07 -0
9.5553e-07 -0
9.5633e-07 -0
9.5712e-07 -0
9.5792e-07 -0
9.5872e-07 -0
9.5952e-07 -0
9.6032e-07 -0
9.6112e-07 -0
9.6192e-07 -0
9.6273e-07 -0
9.6353e-07 -0
9.6433e-07 -0
9.6514e-07 -0
9.6594e-07 -0
9.6675e-07 -0
9.6756e-07 -0
9.6836e-07 -0
9.6917e-07 -0
9.6998e-07 -0
9.7079e-07 -0
9.716e-07 -0
9.7241e-07 -0
9.7322e-07 -0
9.7403e-07 -0
9.7484e-07 -0
9.7566e-07 -0
9.7647e-07 -0
9.7729e-07 -0
9.781e-07 -0
9.7892e-07 -0
9.7973e-07 -0
9.8055e-07 -0
9.8137e-07 -0
9.8219e-07 -0
9.8301e-07 -0
9.8383e-07 -0
9.8465e-07 -0
9.8547e-07 -0
9.8629e-07 -0
9.8711e-07 -0
9.8794e-07 -0
9.8876e-07 -0
9.8959e-07 -0
9.9041e-07 -0
9.9124e-07 -0
9.9207e-07 -0
9.9289e-07 -0
9.9372e-07 -0
9.9455e-07 -0
9.9538e-07 -0
9.9621e-07 -0
9.9704e-07 -0
9.9787e-07 -0
9.9871e-07 -0
9.9954e-07 -0
1.0004e-06 -0
1.0012e-06 -0
1.002e-06 -0
1.0029e-06 -0
1.0037e-06 -0
1.0046e-06 -0
1.0054e-06 -0
1.0062e-06 -0
1.0071e-06 -0
1.0079e-06 -0
1.0087e-06 -0
1.0096e-06 -0
1.0104e-06 -0
1.0113e-06 -0
1.0121e-06 -0
1.013e-06 -0
1.0138e-06 -0
1.0147e-06 -0
1.0155e-06 -0
1.0163e-06 -0
1.0172e-06 -0
1.018e-06 -0
1.0189e-06 -0
1.0197e-06 -0
1.0206e-06 -0
1.0214e-06 -0
1.0223e-06 -0
1.0232e-06 -0
1.024e-06 -0
1.0249e-06 -0
1.0257e-06 -0
1.0266e-06 -0
1.0274e-06 -0
1.0283e-06 -0
1.0291e-06 -0
1.03e-06 -0
