2.8e-07 5.6945e-24
2.8019e-07 5.6727e-24
2.8037e-07 5.7088e-24
2.8056e-07 5.7781e-24
2.8075e-07 5.8585e-24
2.8094e-07 5.9534e-24
2.8112e-07 6.0857e-24
2.8131e-07 6.1781e-24
2.815e-07 6.1859e-24
2.8169e-07 6.1137e-24
2.8187e-07 5.9891e-24
2.8206e-07 5.854e-24
2.8225e-07 5.7491e-24
2.8244e-07 5.7189e-24
2.8263e-07 5.7618e-24
2.8282e-07 5.8562e-24
2.8301e-07 5.9994e-24
2.8319e-07 6.1971e-24
2.8338e-07 6.4551e-24
2.8357e-07 6.7261e-24
2.8376e-07 6.9241e-24
2.8395e-07 7.0382e-24
2.8414e-07 7.0992e-24
2.8433e-07 7.1493e-24
2.8452e-07 7.2252e-24
2.8471e-07 7.3372e-24
2.849e-07 7.4616e-24
2.8509e-07 7.5682e-24
2.8528e-07 7.6602e-24
2.8547e-07 7.7554e-24
2.8566e-07 7.8608e-24
2.8585e-07 7.9614e-24
2.8604e-07 8.0248e-24
2.8623e-07 8.04e-24
2.8642e-07 8.0133e-24
2.8662e-07 7.9532e-24
2.8681e-07 7.8787e-24
2.87e-07 7.818e-24
2.8719e-07 7.799e-24
2.8738e-07 7.8405e-24
2.8757e-07 7.8862e-24
2.8777e-07 7.8929e-24
2.8796e-07 7.888e-24
2.8815e-07 7.9205e-24
2.8834e-07 8.0068e-24
2.8853e-07 8.129e-24
2.8873e-07 8.2657e-24
2.8892e-07 8.3934e-24
2.8911e-07 8.508e-24
2.8931e-07 8.6413e-24
2.895e-07 8.8173e-24
2.8969e-07 9.0163e-24
2.8989e-07 9.1901e-24
2.9008e-07 9.2943e-24
2.9027e-07 9.3265e-24
2.9047e-07 9.3419e-24
2.9066e-07 9.4222e-24
2.9085e-07 9.6215e-24
2.9105e-07 9.9091e-24
2.9124e-07 1.0192e-23
2.9144e-07 1.0399e-23
2.9163e-07 1.0518e-23
2.9183e-07 1.0602e-23
2.9202e-07 1.0718e-23
2.9222e-07 1.0873e-23
2.9241e-07 1.0994e-23
2.9261e-07 1.0978e-23
2.928e-07 1.0796e-23
2.93e-07 1.0553e-23
2.9319e-07 1.0354e-23
2.9339e-07 1.0221e-23
2.9358e-07 1.0146e-23
2.9378e-07 1.0134e-23
2.9398e-07 1.0206e-23
2.9417e-07 1.0404e-23
2.9437e-07 1.0732e-23
2.9456e-07 1.1088e-23
2.9476e-07 1.1327e-23
2.9496e-07 1.1351e-23
2.9515e-07 1.1158e-23
2.9535e-07 1.0882e-23
2.9555e-07 1.0686e-23
2.9575e-07 1.0676e-23
2.9594e-07 1.0904e-23
2.9614e-07 1.1325e-23
2.9634e-07 1.1821e-23
2.9654e-07 1.2326e-23
2.9673e-07 1.286e-23
2.9693e-07 1.345e-23
2.9713e-07 1.405e-23
2.9733e-07 1.4512e-23
2.9753e-07 1.4668e-23
2.9773e-07 1.4456e-23
2.9792e-07 1.4026e-23
2.9812e-07 1.3609e-23
2.9832e-07 1.3341e-23
2.9852e-07 1.3228e-23
2.9872e-07 1.3231e-23
2.9892e-07 1.3341e-23
2.9912e-07 1.3533e-23
2.9932e-07 1.3726e-23
2.9952e-07 1.3867e-23
2.9972e-07 1.3905e-23
2.9992e-07 1.3782e-23
3.0012e-07 1.3548e-23
3.0032e-07 1.3368e-23
3.0052e-07 1.334e-23
3.0072e-07 1.3393e-23
3.0092e-07 1.3426e-23
3.0112e-07 1.3477e-23
3.0132e-07 1.3669e-23
3.0152e-07 1.4035e-23
3.0173e-07 1.4501e-23
3.0193e-07 1.4976e-23
3.0213e-07 1.537e-23
3.0233e-07 1.5622e-23
3.0253e-07 1.5798e-23
3.0273e-07 1.6046e-23
3.0294e-07 1.6399e-23
3.0314e-07 1.6722e-23
3.0334e-07 1.6878e-23
3.0354e-07 1.6877e-23
3.0375e-07 1.6798e-23
3.0395e-07 1.6726e-23
3.0415e-07 1.6734e-23
3.0435e-07 1.6843e-23
3.0456e-07 1.7018e-23
3.0476e-07 1.7215e-23
3.0496e-07 1.7355e-23
3.0517e-07 1.7335e-23
3.0537e-07 1.7168e-23
3.0557e-07 1.6939e-23
3.0578e-07 1.6751e-23
3.0598e-07 1.6693e-23
3.0619e-07 1.6816e-23
3.0639e-07 1.7112e-23
3.066e-07 1.7503e-23
3.068e-07 1.7922e-23
3.0701e-07 1.83e-23
3.0721e-07 1.8508e-23
3.0742e-07 1.8483e-23
3.0762e-07 1.8275e-23
3.0783e-07 1.7989e-23
3.0803e-07 1.7761e-23
3.0824e-07 1.7704e-23
3.0844e-07 1.7946e-23
3.0865e-07 1.855e-23
3.0885e-07 1.9382e-23
3.0906e-07 2.0116e-23
3.0927e-07 2.0524e-23
3.0947e-07 2.0613e-23
3.0968e-07 2.0441e-23
3.0989e-07 2.013e-23
3.1009e-07 1.989e-23
3.103e-07 1.9873e-23
3.1051e-07 2.0093e-23
3.1071e-07 2.0431e-23
3.1092e-07 2.0733e-23
3.1113e-07 2.0986e-23
3.1134e-07 2.1241e-23
3.1155e-07 2.1407e-23
3.1175e-07 2.1443e-23
3.1196e-07 2.1574e-23
3.1217e-07 2.1975e-23
3.1238e-07 2.2465e-23
3.1259e-07 2.2727e-23
3.1279e-07 2.2678e-23
3.13e-07 2.2434e-23
3.1321e-07 2.2109e-23
3.1342e-07 2.1773e-23
3.1363e-07 2.1543e-23
3.1384e-07 2.1513e-23
3.1405e-07 2.1676e-23
3.1426e-07 2.2049e-23
3.1447e-07 2.2659e-23
3.1468e-07 2.3393e-23
3.1489e-07 2.3996e-23
3.151e-07 2.4222e-23
3.1531e-07 2.404e-23
3.1552e-07 2.3685e-23
3.1573e-07 2.3353e-23
3.1594e-07 2.3068e-23
3.1615e-07 2.2875e-23
3.1636e-07 2.2924e-23
3.1657e-07 2.328e-23
3.1679e-07 2.382e-23
3.17e-07 2.4471e-23
3.1721e-07 2.5243e-23
3.1742e-07 2.6046e-23
3.1763e-07 2.6659e-23
3.1784e-07 2.6903e-23
3.1806e-07 2.6852e-23
3.1827e-07 2.6641e-23
3.1848e-07 2.6291e-23
3.1869e-07 2.5915e-23
3.1891e-07 2.5663e-23
3.1912e-07 2.5586e-23
3.1933e-07 2.5713e-23
3.1955e-07 2.6125e-23
3.1976e-07 2.6818e-23
3.1997e-07 2.7569e-23
3.2019e-07 2.8118e-23
3.204e-07 2.8255e-23
3.2061e-07 2.7957e-23
3.2083e-07 2.749e-23
3.2104e-07 2.7154e-23
3.2126e-07 2.6984e-23
3.2147e-07 2.6973e-23
3.2168e-07 2.7189e-23
3.219e-07 2.762e-23
3.2211e-07 2.8152e-23
3.2233e-07 2.8674e-23
3.2254e-07 2.9124e-23
3.2276e-07 2.9432e-23
3.2297e-07 2.9553e-23
3.2319e-07 2.9529e-23
3.2341e-07 2.942e-23
3.2362e-07 2.9268e-23
3.2384e-07 2.9073e-23
3.2405e-07 2.8858e-23
3.2427e-07 2.8793e-23
3.2449e-07 2.9015e-23
3.247e-07 2.9603e-23
3.2492e-07 3.0545e-23
3.2514e-07 3.1554e-23
3.2535e-07 3.2186e-23
3.2557e-07 3.2258e-23
3.2579e-07 3.2042e-23
3.2601e-07 3.1956e-23
3.2622e-07 3.2144e-23
3.2644e-07 3.2379e-23
3.2666e-07 3.2293e-23
3.2688e-07 3.1939e-23
3.271e-07 3.1704e-23
3.2731e-07 3.1888e-23
3.2753e-07 3.2434e-23
3.2775e-07 3.2949e-23
3.2797e-07 3.3104e-23
3.2819e-07 3.2866e-23
3.2841e-07 3.2493e-23
3.2863e-07 3.2275e-23
3.2885e-07 3.2415e-23
3.2907e-07 3.2921e-23
3.2928e-07 3.3601e-23
3.295e-07 3.4272e-23
3.2972e-07 3.4722e-23
3.2994e-07 3.4748e-23
3.3016e-07 3.4354e-23
3.3039e-07 3.3849e-23
3.3061e-07 3.3601e-23
3.3083e-07 3.3695e-23
3.3105e-07 3.398e-23
3.3127e-07 3.4256e-23
3.3149e-07 3.4402e-23
3.3171e-07 3.4427e-23
3.3193e-07 3.4522e-23
3.3215e-07 3.5045e-23
3.3238e-07 3.625e-23
3.326e-07 3.7947e-23
3.3282e-07 3.9556e-23
3.3304e-07 4.0385e-23
3.3326e-07 4.0066e-23
3.3349e-07 3.8945e-23
3.3371e-07 3.7596e-23
3.3393e-07 3.6253e-23
3.3415e-07 3.5176e-23
3.3438e-07 3.4899e-23
3.346e-07 3.575e-23
3.3482e-07 3.7439e-23
3.3505e-07 3.8726e-23
3.3527e-07 3.8615e-23
3.3549e-07 3.7756e-23
3.3572e-07 3.726e-23
3.3594e-07 3.7499e-23
3.3617e-07 3.8207e-23
3.3639e-07 3.8905e-23
3.3662e-07 3.9305e-23
3.3684e-07 3.9329e-23
3.3706e-07 3.8867e-23
3.3729e-07 3.804e-23
3.3752e-07 3.7217e-23
3.3774e-07 3.6836e-23
3.3797e-07 3.7411e-23
3.3819e-07 3.9197e-23
3.3842e-07 4.1559e-23
3.3864e-07 4.3346e-23
3.3887e-07 4.4133e-23
3.391e-07 4.4125e-23
3.3932e-07 4.3498e-23
3.3955e-07 4.26e-23
3.3977e-07 4.2021e-23
3.4e-07 4.2035e-23
3.4023e-07 4.239e-23
3.4046e-07 4.2876e-23
3.4068e-07 4.3598e-23
3.4091e-07 4.4626e-23
3.4114e-07 4.5562e-23
3.4137e-07 4.5839e-23
3.4159e-07 4.5345e-23
3.4182e-07 4.4251e-23
3.4205e-07 4.2708e-23
3.4228e-07 4.1117e-23
3.4251e-07 3.9863e-23
3.4273e-07 3.9066e-23
3.4296e-07 3.8865e-23
3.4319e-07 3.9502e-23
3.4342e-07 4.0812e-23
3.4365e-07 4.2096e-23
3.4388e-07 4.2869e-23
3.4411e-07 4.307e-23
3.4434e-07 4.3064e-23
3.4457e-07 4.3291e-23
3.448e-07 4.3684e-23
3.4503e-07 4.3943e-23
3.4526e-07 4.3971e-23
3.4549e-07 4.3896e-23
3.4572e-07 4.424e-23
3.4595e-07 4.5251e-23
3.4618e-07 4.6403e-23
3.4641e-07 4.7233e-23
3.4664e-07 4.7692e-23
3.4688e-07 4.7652e-23
3.4711e-07 4.7142e-23
3.4734e-07 4.6563e-23
3.4757e-07 4.6417e-23
3.478e-07 4.7429e-23
3.4803e-07 5.0071e-23
3.4827e-07 5.3143e-23
3.485e-07 5.4297e-23
3.4873e-07 5.2891e-23
3.4896e-07 5.0014e-23
3.492e-07 4.6797e-23
3.4943e-07 4.4285e-23
3.4966e-07 4.3054e-23
3.499e-07 4.2929e-23
3.5013e-07 4.3587e-23
3.5036e-07 4.4799e-23
3.506e-07 4.6208e-23
3.5083e-07 4.7468e-23
3.5107e-07 4.8427e-23
3.513e-07 4.8635e-23
3.5154e-07 4.775e-23
3.5177e-07 4.6626e-23
3.52e-07 4.6505e-23
3.5224e-07 4.6966e-23
3.5247e-07 4.6547e-23
3.5271e-07 4.496e-23
3.5295e-07 4.3376e-23
3.5318e-07 4.3061e-23
3.5342e-07 4.4265e-23
3.5365e-07 4.6626e-23
3.5389e-07 4.9708e-23
3.5412e-07 5.2928e-23
3.5436e-07 5.5312e-23
3.546e-07 5.5987e-23
3.5483e-07 5.5018e-23
3.5507e-07 5.3003e-23
3.5531e-07 5.0683e-23
3.5555e-07 4.8692e-23
3.5578e-07 4.7461e-23
3.5602e-07 4.7375e-23
3.5626e-07 4.8439e-23
3.565e-07 5.0395e-23
3.5673e-07 5.3025e-23
3.5697e-07 5.563e-23
3.5721e-07 5.7125e-23
3.5745e-07 5.6966e-23
3.5769e-07 5.5656e-23
3.5793e-07 5.4072e-23
3.5816e-07 5.2626e-23
3.584e-07 5.1227e-23
3.5864e-07 4.981e-23
3.5888e-07 4.8526e-23
3.5912e-07 4.7786e-23
3.5936e-07 4.7734e-23
3.596e-07 4.7851e-23
3.5984e-07 4.7942e-23
3.6008e-07 4.8503e-23
3.6032e-07 4.9959e-23
3.6056e-07 5.1932e-23
3.608e-07 5.3675e-23
3.6104e-07 5.4473e-23
3.6128e-07 5.4128e-23
3.6153e-07 5.3072e-23
3.6177e-07 5.2144e-23
3.6201e-07 5.1916e-23
3.6225e-07 5.2281e-23
3.6249e-07 5.2722e-23
3.6273e-07 5.2917e-23
3.6298e-07 5.2871e-23
3.6322e-07 5.2509e-23
3.6346e-07 5.1771e-23
3.637e-07 5.0981e-23
3.6395e-07 5.1058e-23
3.6419e-07 5.2394e-23
3.6443e-07 5.4403e-23
3.6468e-07 5.6597e-23
3.6492e-07 5.8773e-23
3.6516e-07 6.0704e-23
3.6541e-07 6.1578e-23
3.6565e-07 6.0836e-23
3.6589e-07 5.8742e-23
3.6614e-07 5.5954e-23
3.6638e-07 5.3515e-23
3.6663e-07 5.246e-23
3.6687e-07 5.3074e-23
3.6712e-07 5.4773e-23
3.6736e-07 5.6379e-23
3.6761e-07 5.6981e-23
3.6785e-07 5.6785e-23
3.681e-07 5.6252e-23
3.6834e-07 5.5516e-23
3.6859e-07 5.4794e-23
3.6884e-07 5.4469e-23
3.6908e-07 5.4826e-23
3.6933e-07 5.5299e-23
3.6957e-07 5.5345e-23
3.6982e-07 5.5303e-23
3.7007e-07 5.5401e-23
3.7031e-07 5.497e-23
3.7056e-07 5.3771e-23
3.7081e-07 5.275e-23
3.7106e-07 5.3119e-23
3.713e-07 5.4879e-23
3.7155e-07 5.7487e-23
3.718e-07 6.0156e-23
3.7205e-07 6.1846e-23
3.723e-07 6.2297e-23
3.7255e-07 6.1763e-23
3.7279e-07 6.0199e-23
3.7304e-07 5.8203e-23
3.7329e-07 5.6637e-23
3.7354e-07 5.5913e-23
3.7379e-07 5.6064e-23
3.7404e-07 5.6132e-23
3.7429e-07 5.5215e-23
3.7454e-07 5.4059e-23
3.7479e-07 5.4198e-23
3.7504e-07 5.6627e-23
3.7529e-07 6.0956e-23
3.7554e-07 6.4123e-23
3.7579e-07 6.473e-23
3.7604e-07 6.5933e-23
3.7629e-07 6.7432e-23
3.7654e-07 6.6735e-23
3.7679e-07 6.4e-23
3.7705e-07 6.0644e-23
3.773e-07 5.7493e-23
3.7755e-07 5.5329e-23
3.778e-07 5.4539e-23
3.7805e-07 5.4286e-23
3.7831e-07 5.4137e-23
3.7856e-07 5.4521e-23
3.7881e-07 5.55e-23
3.7906e-07 5.7213e-23
3.7932e-07 5.9931e-23
3.7957e-07 6.3067e-23
3.7982e-07 6.4888e-23
3.8008e-07 6.4777e-23
3.8033e-07 6.3989e-23
3.8058e-07 6.3357e-23
3.8084e-07 6.2493e-23
3.8109e-07 6.1371e-23
3.8135e-07 6.0569e-23
3.816e-07 6.0287e-23
3.8186e-07 6.0126e-23
3.8211e-07 5.95e-23
3.8237e-07 5.8105e-23
3.8262e-07 5.6885e-23
3.8288e-07 5.6792e-23
3.8313e-07 5.7433e-23
3.8339e-07 5.8377e-23
3.8364e-07 5.9506e-23
3.839e-07 6.0765e-23
3.8416e-07 6.1568e-23
3.8441e-07 6.2512e-23
3.8467e-07 6.3579e-23
3.8493e-07 6.3493e-23
3.8518e-07 6.2357e-23
3.8544e-07 6.1878e-23
3.857e-07 6.1975e-23
3.8595e-07 6.0835e-23
3.8621e-07 5.8716e-23
3.8647e-07 5.754e-23
3.8673e-07 5.8162e-23
3.8699e-07 5.9804e-23
3.8724e-07 6.1257e-23
3.875e-07 6.2164e-23
3.8776e-07 6.2563e-23
3.8802e-07 6.2246e-23
3.8828e-07 6.1324e-23
3.8854e-07 6.0897e-23
3.888e-07 6.1811e-23
3.8906e-07 6.3476e-23
3.8932e-07 6.4149e-23
3.8958e-07 6.3353e-23
3.8984e-07 6.2763e-23
3.901e-07 6.309e-23
3.9036e-07 6.3204e-23
3.9062e-07 6.2593e-23
3.9088e-07 6.2011e-23
3.9114e-07 6.2343e-23
3.914e-07 6.3828e-23
3.9166e-07 6.6128e-23
3.9192e-07 6.6809e-23
3.9218e-07 6.5242e-23
3.9245e-07 6.3783e-23
3.9271e-07 6.252e-23
3.9297e-07 6.0278e-23
3.9323e-07 5.8003e-23
3.935e-07 5.7444e-23
3.9376e-07 5.7834e-23
3.9402e-07 5.771e-23
3.9428e-07 5.7138e-23
3.9455e-07 5.7114e-23
3.9481e-07 5.8421e-23
3.9507e-07 6.0961e-23
3.9534e-07 6.3809e-23
3.956e-07 6.5577e-23
3.9587e-07 6.5582e-23
3.9613e-07 6.3767e-23
3.9639e-07 6.1108e-23
3.9666e-07 5.9122e-23
3.9692e-07 5.8366e-23
3.9719e-07 5.8593e-23
3.9745e-07 5.9839e-23
3.9772e-07 6.2776e-23
3.9798e-07 6.6575e-23
3.9825e-07 6.9146e-23
3.9852e-07 6.8967e-23
3.9878e-07 6.5485e-23
3.9905e-07 6.1606e-23
3.9931e-07 6.0675e-23
3.9958e-07 6.3047e-23
3.9985e-07 6.672e-23
4.0011e-07 6.9339e-23
4.0038e-07 6.9718e-23
4.0065e-07 6.893e-23
4.0092e-07 6.8076e-23
4.0118e-07 6.7014e-23
4.0145e-07 6.5482e-23
4.0172e-07 6.3566e-23
4.0199e-07 6.1217e-23
4.0226e-07 5.876e-23
4.0252e-07 5.7011e-23
4.0279e-07 5.6152e-23
4.0306e-07 5.5921e-23
4.0333e-07 5.6458e-23
4.036e-07 5.8475e-23
4.0387e-07 6.1206e-23
4.0414e-07 6.2263e-23
4.0441e-07 6.1829e-23
4.0468e-07 6.2654e-23
4.0495e-07 6.5156e-23
4.0522e-07 6.6443e-23
4.0549e-07 6.4116e-23
4.0576e-07 6.0415e-23
4.0603e-07 5.8345e-23
4.063e-07 5.6854e-23
4.0657e-07 5.4321e-23
4.0684e-07 5.2104e-23
4.0712e-07 5.156e-23
4.0739e-07 5.3083e-23
4.0766e-07 5.6939e-23
4.0793e-07 6.2403e-23
4.082e-07 6.7763e-23
4.0848e-07 7.0268e-23
4.0875e-07 6.8565e-23
4.0902e-07 6.5722e-23
4.0929e-07 6.4368e-23
4.0957e-07 6.3959e-23
4.0984e-07 6.3424e-23
4.1011e-07 6.5029e-23
4.1039e-07 6.7721e-23
4.1066e-07 6.7423e-23
4.1094e-07 6.413e-23
4.1121e-07 5.9935e-23
4.1149e-07 5.6693e-23
4.1176e-07 5.5309e-23
4.1203e-07 5.5264e-23
4.1231e-07 5.6643e-23
4.1258e-07 6.0237e-23
4.1286e-07 6.5443e-23
4.1314e-07 7.1077e-23
4.1341e-07 7.4278e-23
4.1369e-07 7.1894e-23
4.1396e-07 6.5228e-23
4.1424e-07 6.0019e-23
4.1452e-07 5.9065e-23
4.1479e-07 5.9828e-23
4.1507e-07 5.9435e-23
4.1535e-07 5.6706e-23
4.1562e-07 5.3223e-23
4.159e-07 5.1624e-23
4.1618e-07 5.146e-23
4.1646e-07 5.1833e-23
4.1673e-07 5.2642e-23
4.1701e-07 5.4082e-23
4.1729e-07 5.5679e-23
4.1757e-07 5.6456e-23
4.1785e-07 5.7388e-23
4.1813e-07 5.8466e-23
4.1841e-07 5.9282e-23
4.1869e-07 5.8734e-23
4.1897e-07 5.7992e-23
4.1924e-07 5.9384e-23
4.1952e-07 6.141e-23
4.198e-07 6.2063e-23
4.2008e-07 6.1844e-23
4.2037e-07 6.1914e-23
4.2065e-07 6.2279e-23
4.2093e-07 6.2331e-23
4.2121e-07 6.1051e-23
4.2149e-07 6.0388e-23
4.2177e-07 6.1924e-23
4.2205e-07 6.352e-23
4.2233e-07 6.3078e-23
4.2262e-07 6.1763e-23
4.229e-07 6.0772e-23
4.2318e-07 6.1185e-23
4.2346e-07 6.2627e-23
4.2374e-07 6.4001e-23
4.2403e-07 6.5022e-23
4.2431e-07 6.5905e-23
4.2459e-07 6.5534e-23
4.2488e-07 6.2374e-23
4.2516e-07 5.8061e-23
4.2544e-07 5.4602e-23
4.2573e-07 5.1432e-23
4.2601e-07 4.862e-23
4.263e-07 4.7244e-23
4.2658e-07 4.7685e-23
4.2687e-07 5.0945e-23
4.2715e-07 5.6201e-23
4.2744e-07 6.0163e-23
4.2772e-07 6.1841e-23
4.2801e-07 6.2082e-23
4.2829e-07 6.0416e-23
4.2858e-07 5.7027e-23
4.2886e-07 5.3352e-23
4.2915e-07 4.9723e-23
4.2944e-07 4.6742e-23
4.2972e-07 4.6206e-23
4.3001e-07 4.9317e-23
4.303e-07 5.5056e-23
4.3058e-07 5.9911e-23
4.3087e-07 6.1835e-23
4.3116e-07 6.1196e-23
4.3145e-07 5.9015e-23
4.3174e-07 5.5659e-23
4.3202e-07 5.1523e-23
4.3231e-07 4.8267e-23
4.326e-07 4.7463e-23
4.3289e-07 4.9539e-23
4.3318e-07 5.3153e-23
4.3347e-07 5.666e-23
4.3376e-07 5.866e-23
4.3405e-07 5.8507e-23
4.3434e-07 5.8362e-23
4.3463e-07 6.217e-23
4.3492e-07 6.8043e-23
4.3521e-07 6.943e-23
4.355e-07 6.5808e-23
4.3579e-07 6.1808e-23
4.3608e-07 5.8852e-23
4.3637e-07 5.6184e-23
4.3666e-07 5.3033e-23
4.3695e-07 4.9019e-23
4.3724e-07 4.5267e-23
4.3754e-07 4.2928e-23
4.3783e-07 4.1975e-23
4.3812e-07 4.3383e-23
4.3841e-07 4.9507e-23
4.387e-07 5.9118e-23
4.39e-07 6.6505e-23
4.3929e-07 6.8843e-23
4.3958e-07 6.6531e-23
4.3988e-07 6.1703e-23
4.4017e-07 5.5759e-23
4.4046e-07 4.9548e-23
4.4076e-07 4.5855e-23
4.4105e-07 4.3956e-23
4.4135e-07 4.1772e-23
4.4164e-07 3.9809e-23
4.4194e-07 3.948e-23
4.4223e-07 4.0725e-23
4.4253e-07 4.2469e-23
4.4282e-07 4.4332e-23
4.4312e-07 4.5651e-23
4.4341e-07 4.6656e-23
4.4371e-07 4.7911e-23
4.44e-07 5.0835e-23
4.443e-07 5.6442e-23
4.446e-07 6.2588e-23
4.4489e-07 6.4607e-23
4.4519e-07 6.0938e-23
4.4549e-07 5.6047e-23
4.4579e-07 5.2176e-23
4.4608e-07 4.8711e-23
4.4638e-07 4.5364e-23
4.4668e-07 4.3816e-23
4.4698e-07 4.5485e-23
4.4728e-07 5.0908e-23
4.4757e-07 5.9688e-23
4.4787e-07 6.7842e-23
4.4817e-07 6.9256e-23
4.4847e-07 6.3213e-23
4.4877e-07 5.5881e-23
4.4907e-07 5.0687e-23
4.4937e-07 4.6748e-23
4.4967e-07 4.3947e-23
4.4997e-07 4.3606e-23
4.5027e-07 4.546e-23
4.5057e-07 4.6789e-23
4.5087e-07 4.6434e-23
4.5117e-07 4.5333e-23
4.5147e-07 4.4929e-23
4.5177e-07 4.6105e-23
4.5208e-07 4.7462e-23
4.5238e-07 4.793e-23
4.5268e-07 4.7459e-23
4.5298e-07 4.6519e-23
4.5328e-07 4.5825e-23
4.5359e-07 4.3708e-23
4.5389e-07 4.1049e-23
4.5419e-07 4.095e-23
4.545e-07 4.3649e-23
4.548e-07 4.5714e-23
4.551e-07 4.533e-23
4.5541e-07 4.401e-23
4.5571e-07 4.3525e-23
4.5601e-07 4.2795e-23
4.5632e-07 4.028e-23
4.5662e-07 3.7854e-23
4.5693e-07 3.8959e-23
4.5723e-07 4.3773e-23
4.5754e-07 4.8788e-23
4.5784e-07 5.1106e-23
4.5815e-07 5.0667e-23
4.5846e-07 4.8618e-23
4.5876e-07 4.5469e-23
4.5907e-07 4.2866e-23
4.5937e-07 4.2905e-23
4.5968e-07 4.4471e-23
4.5999e-07 4.6819e-23
4.6029e-07 4.913e-23
4.606e-07 4.9251e-23
4.6091e-07 4.7146e-23
4.6122e-07 4.4566e-23
4.6152e-07 4.1859e-23
4.6183e-07 3.9867e-23
4.6214e-07 4.0129e-23
4.6245e-07 4.3894e-23
4.6276e-07 5.0691e-23
4.6307e-07 5.5581e-23
4.6338e-07 5.5376e-23
4.6368e-07 5.1694e-23
4.6399e-07 4.774e-23
4.643e-07 4.5167e-23
4.6461e-07 4.2867e-23
4.6492e-07 3.9651e-23
4.6523e-07 3.565e-23
4.6554e-07 3.2192e-23
4.6586e-07 3.1207e-23
4.6617e-07 3.3481e-23
4.6648e-07 3.8172e-23
4.6679e-07 4.2583e-23
4.671e-07 4.3987e-23
4.6741e-07 4.321e-23
4.6772e-07 4.2455e-23
4.6804e-07 4.0923e-23
4.6835e-07 3.8209e-23
4.6866e-07 3.6236e-23
4.6897e-07 3.5021e-23
4.6929e-07 3.3698e-23
4.696e-07 3.2879e-23
4.6991e-07 3.3594e-23
4.7023e-07 3.4647e-23
4.7054e-07 3.4382e-23
4.7086e-07 3.3274e-23
4.7117e-07 3.2836e-23
4.7148e-07 3.3694e-23
4.718e-07 3.4887e-23
4.7211e-07 3.4953e-23
4.7243e-07 3.4474e-23
4.7274e-07 3.4889e-23
4.7306e-07 3.7065e-23
4.7338e-07 4.1671e-23
4.7369e-07 4.7228e-23
4.7401e-07 4.9653e-23
4.7432e-07 4.8984e-23
4.7464e-07 4.8228e-23
4.7496e-07 4.6864e-23
4.7527e-07 4.4066e-23
4.7559e-07 4.0658e-23
4.7591e-07 3.807e-23
4.7623e-07 3.6307e-23
4.7654e-07 3.4897e-23
4.7686e-07 3.389e-23
4.7718e-07 3.3437e-23
4.775e-07 3.3413e-23
4.7782e-07 3.3298e-23
4.7814e-07 3.2881e-23
4.7846e-07 3.3045e-23
4.7878e-07 3.4536e-23
4.7909e-07 3.7335e-23
4.7941e-07 4.0535e-23
4.7973e-07 4.1434e-23
4.8005e-07 3.9384e-23
4.8038e-07 3.712e-23
4.807e-07 3.6138e-23
4.8102e-07 3.6373e-23
4.8134e-07 3.6496e-23
4.8166e-07 3.4767e-23
4.8198e-07 3.2089e-23
4.823e-07 2.9757e-23
4.8262e-07 2.7784e-23
4.8295e-07 2.5915e-23
4.8327e-07 2.4785e-23
4.8359e-07 2.4633e-23
4.8391e-07 2.5451e-23
4.8424e-07 2.6689e-23
4.8456e-07 2.7758e-23
4.8488e-07 2.8296e-23
4.8521e-07 2.842e-23
4.8553e-07 2.8615e-23
4.8585e-07 2.894e-23
4.8618e-07 2.8394e-23
4.865e-07 2.7149e-23
4.8683e-07 2.6467e-23
4.8715e-07 2.6601e-23
4.8748e-07 2.8099e-23
4.878e-07 3.1331e-23
4.8813e-07 3.6386e-23
4.8846e-07 4.1878e-23
4.8878e-07 4.4382e-23
4.8911e-07 4.2703e-23
4.8943e-07 3.9436e-23
4.8976e-07 3.6098e-23
4.9009e-07 3.3229e-23
4.9041e-07 3.0451e-23
4.9074e-07 2.7356e-23
4.9107e-07 2.4951e-23
4.914e-07 2.4335e-23
4.9173e-07 2.5366e-23
4.9205e-07 2.6148e-23
4.9238e-07 2.5965e-23
4.9271e-07 2.632e-23
4.9304e-07 2.7874e-23
4.9337e-07 2.9701e-23
4.937e-07 3.108e-23
4.9403e-07 3.2675e-23
4.9436e-07 3.4372e-23
4.9469e-07 3.4664e-23
4.9502e-07 3.3447e-23
4.9535e-07 3.2703e-23
4.9568e-07 3.2984e-23
4.9601e-07 3.3225e-23
4.9634e-07 3.2933e-23
4.9667e-07 3.1426e-23
4.97e-07 2.8428e-23
4.9733e-07 2.5325e-23
4.9767e-07 2.3084e-23
4.98e-07 2.1435e-23
4.9833e-07 1.9973e-23
4.9866e-07 1.8853e-23
4.99e-07 1.7838e-23
4.9933e-07 1.6841e-23
4.9966e-07 1.6291e-23
5e-07 1.6332e-23
5.0033e-07 1.6878e-23
5.0066e-07 1.7891e-23
5.01e-07 1.8954e-23
5.0133e-07 1.9629e-23
5.0167e-07 2.0754e-23
5.02e-07 2.2973e-23
5.0234e-07 2.5652e-23
5.0267e-07 2.7493e-23
5.0301e-07 2.6864e-23
5.0334e-07 2.4651e-23
5.0368e-07 2.3971e-23
5.0402e-07 2.6196e-23
5.0435e-07 3.0114e-23
5.0469e-07 3.2669e-23
5.0503e-07 3.171e-23
5.0536e-07 2.8388e-23
5.057e-07 2.5285e-23
5.0604e-07 2.3951e-23
5.0637e-07 2.348e-23
5.0671e-07 2.2579e-23
5.0705e-07 2.1264e-23
5.0739e-07 2.0295e-23
5.0773e-07 2.0304e-23
5.0807e-07 2.1288e-23
5.0841e-07 2.2865e-23
5.0875e-07 2.4484e-23
5.0909e-07 2.5939e-23
5.0942e-07 2.7107e-23
5.0976e-07 2.7645e-23
5.1011e-07 2.6959e-23
5.1045e-07 2.5949e-23
5.1079e-07 2.5356e-23
5.1113e-07 2.5015e-23
5.1147e-07 2.43e-23
5.1181e-07 2.4014e-23
5.1215e-07 2.4604e-23
5.1249e-07 2.4405e-23
5.1284e-07 2.271e-23
5.1318e-07 2.0721e-23
5.1352e-07 1.9288e-23
5.1386e-07 1.8335e-23
5.1421e-07 1.7787e-23
5.1455e-07 1.7214e-23
5.1489e-07 1.6428e-23
5.1524e-07 1.588e-23
5.1558e-07 1.568e-23
5.1592e-07 1.541e-23
5.1627e-07 1.5006e-23
5.1661e-07 1.4307e-23
5.1696e-07 1.3705e-23
5.173e-07 1.3779e-23
5.1765e-07 1.4656e-23
5.1799e-07 1.6635e-23
5.1834e-07 1.8823e-23
5.1869e-07 1.9525e-23
5.1903e-07 1.926e-23
5.1938e-07 1.9282e-23
5.1972e-07 1.9314e-23
5.2007e-07 1.8886e-23
5.2042e-07 1.7803e-23
5.2077e-07 1.6679e-23
5.2111e-07 1.5686e-23
5.2146e-07 1.5076e-23
5.2181e-07 1.4845e-23
5.2216e-07 1.4804e-23
5.2251e-07 1.5109e-23
5.2285e-07 1.5519e-23
5.232e-07 1.5351e-23
5.2355e-07 1.5091e-23
5.239e-07 1.5686e-23
5.2425e-07 1.7247e-23
5.246e-07 1.9775e-23
5.2495e-07 2.2392e-23
5.253e-07 2.3469e-23
5.2565e-07 2.299e-23
5.26e-07 2.2394e-23
5.2635e-07 2.1919e-23
5.2671e-07 2.0554e-23
5.2706e-07 1.8735e-23
5.2741e-07 1.8125e-23
5.2776e-07 1.8326e-23
5.2811e-07 1.7976e-23
5.2847e-07 1.6941e-23
5.2882e-07 1.5952e-23
5.2917e-07 1.5319e-23
5.2953e-07 1.5002e-23
5.2988e-07 1.5335e-23
5.3023e-07 1.5977e-23
5.3059e-07 1.5963e-23
5.3094e-07 1.5735e-23
5.3129e-07 1.5888e-23
5.3165e-07 1.616e-23
5.32e-07 1.6448e-23
5.3236e-07 1.6621e-23
5.3271e-07 1.6305e-23
5.3307e-07 1.548e-23
5.3343e-07 1.4353e-23
5.3378e-07 1.342e-23
5.3414e-07 1.2868e-23
5.3449e-07 1.2027e-23
5.3485e-07 1.0719e-23
5.3521e-07 9.4142e-24
5.3557e-07 8.8512e-24
5.3592e-07 9.0046e-24
5.3628e-07 9.2201e-24
5.3664e-07 9.0024e-24
5.37e-07 8.767e-24
5.3736e-07 8.9617e-24
5.3771e-07 9.8751e-24
5.3807e-07 1.1456e-23
5.3843e-07 1.265e-23
5.3879e-07 1.2964e-23
5.3915e-07 1.2787e-23
5.3951e-07 1.1859e-23
5.3987e-07 1.0455e-23
5.4023e-07 9.2346e-24
5.4059e-07 8.7392e-24
5.4095e-07 9.3707e-24
5.4131e-07 1.0911e-23
5.4167e-07 1.2741e-23
5.4204e-07 1.4093e-23
5.424e-07 1.4831e-23
5.4276e-07 1.5212e-23
5.4312e-07 1.5279e-23
5.4349e-07 1.4757e-23
5.4385e-07 1.3831e-23
5.4421e-07 1.3221e-23
5.4457e-07 1.3687e-23
5.4494e-07 1.482e-23
5.453e-07 1.4924e-23
5.4567e-07 1.36e-23
5.4603e-07 1.2248e-23
5.4639e-07 1.1398e-23
5.4676e-07 1.1359e-23
5.4712e-07 1.2409e-23
5.4749e-07 1.3526e-23
5.4785e-07 1.3839e-23
5.4822e-07 1.357e-23
5.4859e-07 1.3465e-23
5.4895e-07 1.3639e-23
5.4932e-07 1.338e-23
5.4968e-07 1.2361e-23
5.5005e-07 1.1342e-23
5.5042e-07 1.0665e-23
5.5079e-07 1.0075e-23
5.5115e-07 9.5367e-24
5.5152e-07 9.4059e-24
5.5189e-07 9.6841e-24
5.5226e-07 1.0267e-23
5.5263e-07 1.0979e-23
5.53e-07 1.1512e-23
5.5336e-07 1.1223e-23
5.5373e-07 1.0486e-23
5.541e-07 9.9183e-24
5.5447e-07 9.1492e-24
5.5484e-07 8.2112e-24
5.5521e-07 7.4604e-24
5.5558e-07 6.8761e-24
5.5596e-07 6.5305e-24
5.5633e-07 6.5988e-24
5.567e-07 6.7053e-24
5.5707e-07 6.6522e-24
5.5744e-07 6.6466e-24
5.5781e-07 6.7922e-24
5.5819e-07 6.7847e-24
5.5856e-07 6.3378e-24
5.5893e-07 5.7356e-24
5.593e-07 5.3986e-24
5.5968e-07 5.4787e-24
5.6005e-07 5.7966e-24
5.6042e-07 6.179e-24
5.608e-07 6.5533e-24
5.6117e-07 6.9257e-24
5.6155e-07 7.2477e-24
5.6192e-07 7.4831e-24
5.623e-07 7.8496e-24
5.6267e-07 8.634e-24
5.6305e-07 9.732e-24
5.6342e-07 1.1032e-23
5.638e-07 1.1808e-23
5.6418e-07 1.2133e-23
5.6455e-07 1.2172e-23
5.6493e-07 1.1286e-23
5.6531e-07 1.0056e-23
5.6568e-07 8.5538e-24
5.6606e-07 6.9589e-24
5.6644e-07 6.1067e-24
5.6682e-07 6.1101e-24
5.672e-07 6.7277e-24
5.6757e-07 7.6351e-24
5.6795e-07 8.3247e-24
5.6833e-07 8.4321e-24
5.6871e-07 8.0119e-24
5.6909e-07 7.717e-24
5.6947e-07 7.7653e-24
5.6985e-07 8.3565e-24
5.7023e-07 9.3865e-24
5.7061e-07 1.0328e-23
5.7099e-07 1.0549e-23
5.7137e-07 1.0295e-23
5.7176e-07 1.0103e-23
5.7214e-07 9.6776e-24
5.7252e-07 8.723e-24
5.729e-07 7.7784e-24
5.7328e-07 7.0709e-24
5.7367e-07 6.3603e-24
5.7405e-07 5.6948e-24
5.7443e-07 5.235e-24
5.7482e-07 4.9735e-24
5.752e-07 4.6871e-24
5.7558e-07 4.2199e-24
5.7597e-07 3.7322e-24
5.7635e-07 3.4542e-24
5.7674e-07 3.418e-24
5.7712e-07 3.5335e-24
5.7751e-07 3.7419e-24
5.7789e-07 4.1223e-24
5.7828e-07 4.7372e-24
5.7866e-07 5.5014e-24
5.7905e-07 5.9344e-24
5.7944e-07 5.9161e-24
5.7982e-07 5.7731e-24
5.8021e-07 5.5268e-24
5.806e-07 5.0309e-24
5.8098e-07 4.3861e-24
5.8137e-07 3.9504e-24
5.8176e-07 3.7632e-24
5.8215e-07 3.6032e-24
5.8254e-07 3.5638e-24
5.8293e-07 3.7171e-24
5.8331e-07 3.8585e-24
5.837e-07 4.046e-24
5.8409e-07 4.4774e-24
5.8448e-07 5.1272e-24
5.8487e-07 5.7756e-24
5.8526e-07 6.1614e-24
5.8565e-07 6.1029e-24
5.8605e-07 5.7776e-24
5.8644e-07 5.5471e-24
5.8683e-07 5.3213e-24
5.8722e-07 4.9649e-24
5.8761e-07 4.5722e-24
5.88e-07 4.3139e-24
5.884e-07 4.2692e-24
5.8879e-07 4.4957e-24
5.8918e-07 4.9737e-24
5.8958e-07 5.4941e-24
5.8997e-07 5.9988e-24
5.9036e-07 6.3948e-24
5.9076e-07 6.4024e-24
5.9115e-07 6.4851e-24
5.9155e-07 7.1062e-24
5.9194e-07 7.7517e-24
5.9234e-07 7.9572e-24
5.9273e-07 7.8047e-24
5.9313e-07 7.2085e-24
5.9352e-07 6.1444e-24
5.9392e-07 5.0848e-24
5.9431e-07 4.2737e-24
5.9471e-07 3.7733e-24
5.9511e-07 3.3273e-24
5.9551e-07 3.0329e-24
5.959e-07 3.0394e-24
5.963e-07 3.159e-24
5.967e-07 3.2205e-24
5.971e-07 3.3273e-24
5.975e-07 3.4345e-24
5.9789e-07 3.489e-24
5.9829e-07 3.6069e-24
5.9869e-07 3.8794e-24
5.9909e-07 4.1504e-24
5.9949e-07 4.4427e-24
5.9989e-07 4.7455e-24
6.0029e-07 4.8707e-24
6.0069e-07 4.8121e-24
6.0109e-07 4.6702e-24
6.015e-07 4.4713e-24
6.019e-07 4.1179e-24
6.023e-07 3.6354e-24
6.027e-07 3.0849e-24
6.031e-07 2.5139e-24
6.0351e-07 2.0598e-24
6.0391e-07 1.8018e-24
6.0431e-07 1.6774e-24
6.0471e-07 1.7026e-24
6.0512e-07 1.8667e-24
6.0552e-07 1.9549e-24
6.0593e-07 1.8606e-24
6.0633e-07 1.7997e-24
6.0674e-07 1.8518e-24
6.0714e-07 1.9023e-24
6.0755e-07 1.9912e-24
6.0795e-07 2.0747e-24
6.0836e-07 2.0508e-24
6.0876e-07 2.0053e-24
6.0917e-07 1.9856e-24
6.0958e-07 1.984e-24
6.0998e-07 2.0273e-24
6.1039e-07 2.1795e-24
6.108e-07 2.5927e-24
6.112e-07 3.304e-24
6.1161e-07 4.0438e-24
6.1202e-07 4.7035e-24
6.1243e-07 5.175e-24
6.1284e-07 4.9051e-24
6.1325e-07 4.075e-24
6.1366e-07 3.6073e-24
6.1407e-07 3.4628e-24
6.1448e-07 3.2416e-24
6.1489e-07 3.0171e-24
6.153e-07 3.0609e-24
6.1571e-07 3.3707e-24
6.1612e-07 3.7649e-24
6.1653e-07 4.0899e-24
6.1694e-07 4.074e-24
6.1735e-07 3.7553e-24
6.1776e-07 3.3679e-24
6.1818e-07 2.8682e-24
6.1859e-07 2.4659e-24
6.19e-07 2.3973e-24
6.1942e-07 2.5757e-24
6.1983e-07 2.8614e-24
6.2024e-07 3.1927e-24
6.2066e-07 3.3113e-24
6.2107e-07 3.0213e-24
6.2149e-07 2.5587e-24
6.219e-07 2.2385e-24
6.2232e-07 2.173e-24
6.2273e-07 2.2467e-24
6.2315e-07 2.3357e-24
6.2356e-07 2.3787e-24
6.2398e-07 2.3303e-24
6.2439e-07 2.2682e-24
6.2481e-07 2.233e-24
6.2523e-07 2.1808e-24
6.2565e-07 2.0592e-24
6.2606e-07 1.9117e-24
6.2648e-07 1.802e-24
6.269e-07 1.6995e-24
6.2732e-07 1.5783e-24
6.2774e-07 1.4623e-24
6.2816e-07 1.3848e-24
6.2857e-07 1.3665e-24
6.2899e-07 1.356e-24
6.2941e-07 1.2602e-24
6.2983e-07 1.1318e-24
6.3025e-07 1.0913e-24
6.3068e-07 1.1683e-24
6.311e-07 1.2835e-24
6.3152e-07 1.3752e-24
6.3194e-07 1.4075e-24
6.3236e-07 1.362e-24
6.3278e-07 1.2904e-24
6.3321e-07 1.3367e-24
6.3363e-07 1.4472e-24
6.3405e-07 1.4911e-24
6.3447e-07 1.444e-24
6.349e-07 1.3712e-24
6.3532e-07 1.3817e-24
6.3575e-07 1.4434e-24
6.3617e-07 1.5069e-24
6.3659e-07 1.5297e-24
6.3702e-07 1.5355e-24
6.3744e-07 1.5634e-24
6.3787e-07 1.5622e-24
6.383e-07 1.4743e-24
6.3872e-07 1.4131e-24
6.3915e-07 1.4246e-24
6.3957e-07 1.4889e-24
6.4e-07 1.5548e-24
6.4043e-07 1.5947e-24
6.4086e-07 1.6389e-24
6.4128e-07 1.7073e-24
6.4171e-07 1.8769e-24
6.4214e-07 2.0966e-24
6.4257e-07 2.2032e-24
6.43e-07 2.1531e-24
6.4343e-07 2.0179e-24
6.4386e-07 1.7886e-24
6.4429e-07 1.5858e-24
6.4472e-07 1.5726e-24
6.4515e-07 1.6855e-24
6.4558e-07 1.8444e-24
6.4601e-07 2.1267e-24
6.4644e-07 2.4816e-24
6.4687e-07 2.705e-24
6.473e-07 2.6777e-24
6.4773e-07 2.4e-24
6.4817e-07 1.9045e-24
6.486e-07 1.4608e-24
6.4903e-07 1.2663e-24
6.4946e-07 1.2324e-24
6.499e-07 1.2861e-24
6.5033e-07 1.3739e-24
6.5077e-07 1.4189e-24
6.512e-07 1.4181e-24
6.5164e-07 1.3405e-24
6.5207e-07 1.2246e-24
6.5251e-07 1.1366e-24
6.5294e-07 1.0559e-24
6.5338e-07 9.8029e-25
6.5381e-07 9.3971e-25
6.5425e-07 9.5171e-25
6.5469e-07 9.8771e-25
6.5512e-07 1.0046e-24
6.5556e-07 1.0099e-24
6.56e-07 9.7816e-25
6.5644e-07 8.8532e-25
6.5687e-07 7.9714e-25
6.5731e-07 7.3372e-25
6.5775e-07 7.0384e-25
6.5819e-07 6.9744e-25
6.5863e-07 7.1076e-25
6.5907e-07 7.2751e-25
6.5951e-07 7.2506e-25
6.5995e-07 6.8241e-25
6.6039e-07 6.0961e-25
6.6083e-07 5.4695e-25
6.6127e-07 4.9104e-25
6.6171e-07 4.4405e-25
6.6215e-07 4.1228e-25
6.626e-07 3.9621e-25
6.6304e-07 3.9458e-25
6.6348e-07 3.9842e-25
6.6392e-07 4.1544e-25
6.6437e-07 4.6367e-25
6.6481e-07 5.3501e-25
6.6525e-07 6.0373e-25
6.657e-07 6.6294e-25
6.6614e-07 6.3132e-25
6.6659e-07 3.9874e-25
6.6703e-07 1.3088e-25
6.6748e-07 1.8255e-26
6.6792e-07 3.2977e-28
6.6837e-07 0
6.6881e-07 0
6.6926e-07 0
6.6971e-07 0
6.7015e-07 0
6.706e-07 0
6.7105e-07 0
6.715e-07 0
6.7195e-07 0
6.7239e-07 0
6.7284e-07 0
6.7329e-07 0
6.7374e-07 0
6.7419e-07 0
6.7464e-07 0
6.7509e-07 0
6.7554e-07 0
6.7599e-07 0
6.7644e-07 0
6.769e-07 0
6.7735e-07 0
6.778e-07 0
6.7825e-07 0
6.787e-07 0
6.7916e-07 0
6.7961e-07 0
6.8006e-07 0
6.8052e-07 0
6.8097e-07 0
6.8143e-07 0
6.8188e-07 0
6.8234e-07 0
6.8279e-07 0
6.8325e-07 0
6.837e-07 0
6.8416e-07 0
6.8462e-07 0
6.8507e-07 0
6.8553e-07 0
6.8599e-07 0
6.8645e-07 0
6.869e-07 0
6.8736e-07 0
6.8782e-07 0
6.8828e-07 0
6.8874e-07 0
6.892e-07 0
6.8966e-07 0
6.9012e-07 0
6.9058e-07 0
6.9104e-07 0
6.915e-07 0
6.9196e-07 0
6.9243e-07 0
6.9289e-07 0
6.9335e-07 0
6.9381e-07 0
6.9428e-07 0
6.9474e-07 0
6.952e-07 0
6.9567e-07 0
6.9613e-07 0
6.966e-07 0
6.9706e-07 0
6.9753e-07 0
6.9799e-07 0
6.9846e-07 0
6.9892e-07 0
6.9939e-07 0
6.9986e-07 0
7.0032e-07 0
7.0079e-07 0
7.0126e-07 0
7.0173e-07 0
7.022e-07 0
7.0267e-07 0
7.0313e-07 0
7.036e-07 0
7.0407e-07 0
7.0454e-07 0
7.0501e-07 0
7.0548e-07 0
7.0595e-07 0
7.0643e-07 0
7.069e-07 0
7.0737e-07 0
7.0784e-07 0
7.0831e-07 0
7.0879e-07 0
7.0926e-07 0
7.0973e-07 0
7.1021e-07 0
7.1068e-07 0
7.1115e-07 0
7.1163e-07 0
7.121e-07 0
7.1258e-07 0
7.1306e-07 0
7.1353e-07 0
7.1401e-07 0
7.1448e-07 0
7.1496e-07 0
7.1544e-07 0
7.1592e-07 0
7.1639e-07 0
7.1687e-07 0
7.1735e-07 0
7.1783e-07 0
7.1831e-07 0
7.1879e-07 0
7.1927e-07 0
7.1975e-07 0
7.2023e-07 0
7.2071e-07 0
7.2119e-07 0
7.2167e-07 0
7.2215e-07 0
7.2263e-07 0
7.2312e-07 0
7.236e-07 0
7.2408e-07 0
7.2457e-07 0
7.2505e-07 0
7.2553e-07 0
7.2602e-07 0
7.265e-07 0
7.2699e-07 0
7.2747e-07 0
7.2796e-07 0
7.2844e-07 0
7.2893e-07 0
7.2942e-07 0
7.299e-07 0
7.3039e-07 0
7.3088e-07 0
7.3137e-07 0
7.3185e-07 0
7.3234e-07 0
7.3283e-07 0
7.3332e-07 0
7.3381e-07 0
7.343e-07 0
7.3479e-07 0
7.3528e-07 0
7.3577e-07 0
7.3626e-07 0
7.3675e-07 0
7.3724e-07 0
7.3774e-07 0
7.3823e-07 0
7.3872e-07 0
7.3921e-07 0
7.3971e-07 0
7.402e-07 0
7.407e-07 0
7.4119e-07 0
7.4169e-07 0
7.4218e-07 0
7.4268e-07 0
7.4317e-07 0
7.4367e-07 0
7.4416e-07 0
7.4466e-07 0
7.4516e-07 0
7.4565e-07 0
7.4615e-07 0
7.4665e-07 0
7.4715e-07 0
7.4765e-07 0
7.4815e-07 0
7.4865e-07 0
7.4915e-07 0
7.4965e-07 0
7.5015e-07 0
7.5065e-07 0
7.5115e-07 0
7.5165e-07 0
7.5215e-07 0
7.5265e-07 0
7.5315e-07 0
7.5366e-07 0
7.5416e-07 0
7.5466e-07 0
7.5517e-07 0
7.5567e-07 0
7.5618e-07 0
7.5668e-07 0
7.5719e-07 0
7.5769e-07 0
7.582e-07 0
7.587e-07 0
7.5921e-07 0
7.5972e-07 0
7.6022e-07 0
7.6073e-07 0
7.6124e-07 0
7.6175e-07 0
7.6225e-07 0
7.6276e-07 0
7.6327e-07 0
7.6378e-07 0
7.6429e-07 0
7.648e-07 0
7.6531e-07 0
7.6582e-07 0
7.6633e-07 0
7.6685e-07 0
7.6736e-07 0
7.6787e-07 0
7.6838e-07 0
7.689e-07 0
7.6941e-07 0
7.6992e-07 0
7.7044e-07 0
7.7095e-07 0
7.7146e-07 0
7.7198e-07 0
7.7249e-07 0
7.7301e-07 0
7.7353e-07 0
7.7404e-07 0
7.7456e-07 0
7.7508e-07 0
7.7559e-07 0
7.7611e-07 0
7.7663e-07 0
7.7715e-07 0
7.7767e-07 0
7.7819e-07 0
7.787e-07 0
7.7922e-07 0
7.7974e-07 0
7.8026e-07 0
7.8079e-07 0
7.8131e-07 0
7.8183e-07 0
7.8235e-07 0
7.8287e-07 0
7.8339e-07 0
7.8392e-07 0
7.8444e-07 0
7.8496e-07 0
7.8549e-07 0
7.8601e-07 0
7.8654e-07 0
7.8706e-07 0
7.8759e-07 0
7.8811e-07 0
7.8864e-07 0
7.8917e-07 0
7.8969e-07 0
7.9022e-07 0
7.9075e-07 0
7.9127e-07 0
7.918e-07 0
7.9233e-07 0
7.9286e-07 0
7.9339e-07 0
7.9392e-07 0
7.9445e-07 0
7.9498e-07 0
7.9551e-07 0
7.9604e-07 0
7.9657e-07 0
7.971e-07 0
7.9764e-07 0
7.9817e-07 0
7.987e-07 0
7.9923e-07 0
7.9977e-07 0
8.003e-07 0
8.0083e-07 0
8.0137e-07 0
8.019e-07 0
8.0244e-07 0
8.0297e-07 0
8.0351e-07 0
8.0405e-07 0
8.0458e-07 0
8.0512e-07 0
8.0566e-07 0
8.062e-07 0
8.0673e-07 0
8.0727e-07 0
8.0781e-07 0
8.0835e-07 0
8.0889e-07 0
8.0943e-07 0
8.0997e-07 0
8.1051e-07 0
8.1105e-07 0
8.1159e-07 0
8.1213e-07 0
8.1268e-07 0
8.1322e-07 0
8.1376e-07 0
8.1431e-07 0
8.1485e-07 0
8.1539e-07 0
8.1594e-07 0
8.1648e-07 0
8.1703e-07 0
8.1757e-07 0
8.1812e-07 0
8.1866e-07 0
8.1921e-07 0
8.1976e-07 0
8.203e-07 0
8.2085e-07 0
8.214e-07 0
8.2195e-07 0
8.225e-07 0
8.2304e-07 0
8.2359e-07 0
8.2414e-07 0
8.2469e-07 0
8.2524e-07 0
8.258e-07 0
8.2635e-07 0
8.269e-07 0
8.2745e-07 0
8.28e-07 0
8.2855e-07 0
8.2911e-07 0
8.2966e-07 0
8.3021e-07 0
8.3077e-07 0
8.3132e-07 0
8.3188e-07 0
8.3243e-07 0
8.3299e-07 0
8.3354e-07 0
8.341e-07 0
8.3466e-07 0
8.3522e-07 0
8.3577e-07 0
8.3633e-07 0
8.3689e-07 0
8.3745e-07 0
8.3801e-07 0
8.3857e-07 0
8.3913e-07 0
8.3969e-07 0
8.4025e-07 0
8.4081e-07 0
8.4137e-07 0
8.4193e-07 0
8.4249e-07 0
8.4305e-07 0
8.4362e-07 0
8.4418e-07 0
8.4474e-07 0
8.4531e-07 0
8.4587e-07 0
8.4644e-07 0
8.47e-07 0
8.4757e-07 0
8.4813e-07 0
8.487e-07 0
8.4926e-07 0
8.4983e-07 0
8.504e-07 0
8.5097e-07 0
8.5153e-07 0
8.521e-07 0
8.5267e-07 0
8.5324e-07 0
8.5381e-07 0
8.5438e-07 0
8.5495e-07 0
8.5552e-07 0
8.5609e-07 0
8.5666e-07 0
8.5723e-07 0
8.5781e-07 0
8.5838e-07 0
8.5895e-07 0
8.5952e-07 0
8.601e-07 0
8.6067e-07 0
8.6125e-07 0
8.6182e-07 0
8.624e-07 0
8.6297e-07 0
8.6355e-07 0
8.6412e-07 0
8.647e-07 0
8.6528e-07 0
8.6586e-07 0
8.6643e-07 0
8.6701e-07 0
8.6759e-07 0
8.6817e-07 0
8.6875e-07 0
8.6933e-07 0
8.6991e-07 0
8.7049e-07 0
8.7107e-07 0
8.7165e-07 0
8.7223e-07 0
8.7282e-07 0
8.734e-07 0
8.7398e-07 0
8.7457e-07 0
8.7515e-07 0
8.7573e-07 0
8.7632e-07 0
8.769e-07 0
8.7749e-07 0
8.7807e-07 0
8.7866e-07 0
8.7925e-07 0
8.7983e-07 0
8.8042e-07 0
8.8101e-07 0
8.816e-07 0
8.8218e-07 0
8.8277e-07 0
8.8336e-07 0
8.8395e-07 0
8.8454e-07 0
8.8513e-07 0
8.8572e-07 0
8.8631e-07 0
8.8691e-07 0
8.875e-07 0
8.8809e-07 0
8.8868e-07 0
8.8928e-07 0
8.8987e-07 0
8.9046e-07 0
8.9106e-07 0
8.9165e-07 0
8.9225e-07 0
8.9284e-07 0
8.9344e-07 0
8.9404e-07 0
8.9463e-07 0
8.9523e-07 0
8.9583e-07 0
8.9642e-07 0
8.9702e-07 0
8.9762e-07 0
8.9822e-07 0
8.9882e-07 0
8.9942e-07 0
9.0002e-07 0
9.0062e-07 0
9.0122e-07 0
9.0182e-07 0
9.0243e-07 0
9.0303e-07 0
9.0363e-07 0
9.0423e-07 0
9.0484e-07 0
9.0544e-07 0
9.0605e-07 0
9.0665e-07 0
9.0726e-07 0
9.0786e-07 0
9.0847e-07 0
9.0907e-07 0
9.0968e-07 0
9.1029e-07 0
9.1089e-07 0
9.115e-07 0
9.1211e-07 0
9.1272e-07 0
9.1333e-07 0
9.1394e-07 0
9.1455e-07 0
9.1516e-07 0
9.1577e-07 0
9.1638e-07 0
9.1699e-07 0
9.176e-07 0
9.1822e-07 0
9.1883e-07 0
9.1944e-07 0
9.2006e-07 0
9.2067e-07 0
9.2129e-07 0
9.219e-07 0
9.2252e-07 0
9.2313e-07 0
9.2375e-07 0
9.2436e-07 0
9.2498e-07 0
9.256e-07 0
9.2622e-07 0
9.2683e-07 0
9.2745e-07 0
9.2807e-07 0
9.2869e-07 0
9.2931e-07 0
9.2993e-07 0
9.3055e-07 0
9.3117e-07 0
9.3179e-07 0
9.3242e-07 0
9.3304e-07 0
9.3366e-07 0
9.3429e-07 0
9.3491e-07 0
9.3553e-07 0
9.3616e-07 0
9.3678e-07 0
9.3741e-07 0
9.3803e-07 0
9.3866e-07 0
9.3929e-07 0
9.3991e-07 0
9.4054e-07 0
9.4117e-07 0
9.418e-07 0
9.4242e-07 0
9.4305e-07 0
9.4368e-07 0
9.4431e-07 0
9.4494e-07 0
9.4557e-07 0
9.462e-07 0
9.4684e-07 0
9.4747e-07 0
9.481e-07 0
9.4873e-07 0
9.4937e-07 0
9.5e-07 0
