2.8e-07 3.8309e-31
2.8023e-07 2.76e-31
2.8047e-07 2.1955e-31
2.807e-07 1.6812e-31
2.8094e-07 2.8607e-31
2.8117e-07 4.3947e-31
2.814e-07 3.5173e-31
2.8164e-07 2.8585e-31
2.8187e-07 2.2983e-31
2.8211e-07 1.7598e-31
2.8234e-07 1.1372e-31
2.8258e-07 6.6274e-32
2.8282e-07 6.3567e-32
2.8305e-07 5.1127e-32
2.8329e-07 3.8481e-32
2.8352e-07 1.7235e-32
2.8376e-07 8.0825e-33
2.84e-07 6.3751e-33
2.8423e-07 4.4258e-33
2.8447e-07 3.1553e-33
2.8471e-07 1.9069e-33
2.8495e-07 4.1706e-34
2.8518e-07 3.3954e-35
2.8542e-07 2.8789e-32
2.8566e-07 7.0576e-32
2.859e-07 8.3591e-32
2.8614e-07 7.0713e-32
2.8638e-07 1.1957e-31
2.8661e-07 1.9878e-31
2.8685e-07 2.1456e-31
2.8709e-07 1.7715e-31
2.8733e-07 1.1173e-31
2.8757e-07 7.666e-32
2.8781e-07 5.5887e-32
2.8805e-07 4.4284e-32
2.8829e-07 3.4043e-32
2.8853e-07 2.4968e-32
2.8877e-07 1.6462e-32
2.8901e-07 1.031e-32
2.8926e-07 8.0604e-33
2.895e-07 6.6625e-33
2.8974e-07 4.0271e-33
2.8998e-07 1.1492e-33
2.9022e-07 1.1158e-36
2.9046e-07 4.7361e-37
2.9071e-07 3.1668e-37
2.9095e-07 5.4707e-37
2.9119e-07 1.1531e-36
2.9143e-07 2.0714e-36
2.9168e-07 3.4666e-36
2.9192e-07 6.4166e-36
2.9216e-07 1.0384e-33
2.9241e-07 2.5192e-32
2.9265e-07 6.6965e-32
2.929e-07 7.7625e-32
2.9314e-07 5.9314e-32
2.9339e-07 3.8703e-32
2.9363e-07 2.5134e-32
2.9388e-07 1.1829e-32
2.9412e-07 3.8723e-33
2.9437e-07 5.7739e-34
2.9461e-07 2.1589e-36
2.9486e-07 1.0238e-36
2.951e-07 4.6789e-37
2.9535e-07 1.8781e-37
2.956e-07 5.9543e-38
2.9584e-07 1.1625e-38
2.9609e-07 9.2129e-40
2.9634e-07 -0
2.9658e-07 -0
2.9683e-07 -0
2.9708e-07 -0
2.9733e-07 -0
2.9757e-07 -0
2.9782e-07 -0
2.9807e-07 -0
2.9832e-07 -0
2.9857e-07 -0
2.9882e-07 -0
2.9907e-07 -0
2.9932e-07 -0
2.9957e-07 -0
2.9982e-07 -0
3.0007e-07 -0
3.0032e-07 -0
3.0057e-07 -0
3.0082e-07 -0
3.0107e-07 -0
3.0132e-07 -0
3.0157e-07 -0
3.0182e-07 -0
3.0207e-07 -0
3.0233e-07 -0
3.0258e-07 -0
3.0283e-07 -0
3.0308e-07 -0
3.0334e-07 -0
3.0359e-07 -0
3.0384e-07 -0
3.041e-07 -0
3.0435e-07 -0
3.046e-07 -0
3.0486e-07 -0
3.0511e-07 -0
3.0537e-07 -0
3.0562e-07 -0
3.0588e-07 -0
3.0613e-07 -0
3.0639e-07 -0
3.0664e-07 -0
3.069e-07 -0
3.0715e-07 -0
3.0741e-07 -0
3.0767e-07 -0
3.0792e-07 -0
3.0818e-07 -0
3.0844e-07 -0
3.087e-07 -0
3.0895e-07 -0
3.0921e-07 -0
3.0947e-07 -0
3.0973e-07 -0
3.0998e-07 -0
3.1024e-07 -0
3.105e-07 -0
3.1076e-07 -0
3.1102e-07 -0
3.1128e-07 -0
3.1154e-07 -0
3.118e-07 -0
3.1206e-07 -0
3.1232e-07 -0
3.1258e-07 -0
3.1284e-07 -0
3.131e-07 -0
3.1336e-07 -0
3.1362e-07 -0
3.1389e-07 -0
3.1415e-07 -0
3.1441e-07 -0
3.1467e-07 -0
3.1494e-07 -0
3.152e-07 -0
3.1546e-07 -0
3.1572e-07 -0
3.1599e-07 -0
3.1625e-07 -0
3.1651e-07 -0
3.1678e-07 -0
3.1704e-07 -0
3.1731e-07 -0
3.1757e-07 -0
3.1784e-07 -0
3.181e-07 -0
3.1837e-07 -0
3.1863e-07 -0
3.189e-07 -0
3.1917e-07 -0
3.1943e-07 -0
3.197e-07 -0
3.1996e-07 -0
3.2023e-07 -0
3.205e-07 -0
3.2077e-07 -0
3.2103e-07 -0
3.213e-07 -0
3.2157e-07 -0
3.2184e-07 -0
3.2211e-07 -0
3.2238e-07 -0
3.2264e-07 -0
3.2291e-07 -0
3.2318e-07 -0
3.2345e-07 -0
3.2372e-07 -0
3.2399e-07 -0
3.2426e-07 -0
3.2453e-07 -0
3.248e-07 -0
3.2507e-07 -0
3.2535e-07 -0
3.2562e-07 -0
3.2589e-07 -0
3.2616e-07 -0
3.2643e-07 -0
3.2671e-07 -0
3.2698e-07 -0
3.2725e-07 -0
3.2752e-07 -0
3.278e-07 -0
3.2807e-07 -0
3.2834e-07 -0
3.2862e-07 -0
3.2889e-07 -0
3.2917e-07 -0
3.2944e-07 -0
3.2972e-07 -0
3.2999e-07 -0
3.3027e-07 -0
3.3054e-07 -0
3.3082e-07 -0
3.3109e-07 -0
3.3137e-07 -0
3.3165e-07 -0
3.3192e-07 -0
3.322e-07 -0
3.3248e-07 -0
3.3275e-07 -0
3.3303e-07 -0
3.3331e-07 -0
3.3359e-07 -0
3.3387e-07 -0
3.3414e-07 -0
3.3442e-07 -0
3.347e-07 -0
3.3498e-07 -0
3.3526e-07 -0
3.3554e-07 -0
3.3582e-07 -0
3.361e-07 -0
3.3638e-07 -0
3.3666e-07 -0
3.3694e-07 -0
3.3722e-07 -0
3.375e-07 -0
3.3779e-07 -0
3.3807e-07 -0
3.3835e-07 -0
3.3863e-07 -0
3.3891e-07 -0
3.392e-07 -0
3.3948e-07 -0
3.3976e-07 -0
3.4005e-07 -0
3.4033e-07 -0
3.4061e-07 -0
3.409e-07 -0
3.4118e-07 -0
3.4147e-07 -0
3.4175e-07 -0
3.4204e-07 -0
3.4232e-07 -0
3.4261e-07 -0
3.4289e-07 -0
3.4318e-07 -0
3.4347e-07 -0
3.4375e-07 -0
3.4404e-07 -0
3.4433e-07 -0
3.4461e-07 -0
3.449e-07 -0
3.4519e-07 -0
3.4548e-07 -0
3.4577e-07 -0
3.4605e-07 -0
3.4634e-07 -0
3.4663e-07 -0
3.4692e-07 -0
3.4721e-07 -0
3.475e-07 -0
3.4779e-07 -0
3.4808e-07 -0
3.4837e-07 -0
3.4866e-07 -0
3.4895e-07 -0
3.4924e-07 -0
3.4953e-07 -0
3.4983e-07 -0
3.5012e-07 -0
3.5041e-07 -0
3.507e-07 -0
3.5099e-07 -0
3.5129e-07 -0
3.5158e-07 -0
3.5187e-07 -0
3.5217e-07 -0
3.5246e-07 -0
3.5276e-07 -0
3.5305e-07 -0
3.5334e-07 -0
3.5364e-07 -0
3.5393e-07 -0
3.5423e-07 -0
3.5452e-07 -0
3.5482e-07 -0
3.5512e-07 -0
3.5541e-07 -0
3.5571e-07 -0
3.5601e-07 -0
3.563e-07 -0
3.566e-07 -0
3.569e-07 -0
3.572e-07 -0
3.5749e-07 -0
3.5779e-07 -0
3.5809e-07 -0
3.5839e-07 -0
3.5869e-07 -0
3.5899e-07 -0
3.5929e-07 -0
3.5959e-07 -0
3.5989e-07 -0
3.6019e-07 -0
3.6049e-07 -0
3.6079e-07 -0
3.6109e-07 -0
3.6139e-07 -0
3.6169e-07 -0
3.6199e-07 -0
3.623e-07 -0
3.626e-07 -0
3.629e-07 -0
3.632e-07 -0
3.6351e-07 -0
3.6381e-07 -0
3.6411e-07 -0
3.6442e-07 -0
3.6472e-07 -0
3.6502e-07 -0
3.6533e-07 -0
3.6563e-07 -0
3.6594e-07 -0
3.6624e-07 -0
3.6655e-07 -0
3.6686e-07 -0
3.6716e-07 -0
3.6747e-07 -0
3.6777e-07 -0
3.6808e-07 -0
3.6839e-07 -0
3.687e-07 -0
3.69e-07 -0
3.6931e-07 -0
3.6962e-07 -0
3.6993e-07 -0
3.7024e-07 -0
3.7054e-07 -0
3.7085e-07 -0
3.7116e-07 -0
3.7147e-07 -0
3.7178e-07 -0
3.7209e-07 -0
3.724e-07 -0
3.7271e-07 -0
3.7302e-07 -0
3.7334e-07 -0
3.7365e-07 -0
3.7396e-07 -0
3.7427e-07 -0
3.7458e-07 -0
3.749e-07 -0
3.7521e-07 -0
3.7552e-07 -0
3.7583e-07 -0
3.7615e-07 -0
3.7646e-07 -0
3.7678e-07 -0
3.7709e-07 -0
3.7741e-07 -0
3.7772e-07 -0
3.7804e-07 -0
3.7835e-07 -0
3.7867e-07 -0
3.7898e-07 -0
3.793e-07 -0
3.7961e-07 -0
3.7993e-07 -0
3.8025e-07 -0
3.8057e-07 -0
3.8088e-07 -0
3.812e-07 -0
3.8152e-07 -0
3.8184e-07 -0
3.8216e-07 -0
3.8247e-07 -0
3.8279e-07 -0
3.8311e-07 -0
3.8343e-07 -0
3.8375e-07 -0
3.8407e-07 -0
3.8439e-07 -0
3.8471e-07 -0
3.8503e-07 -0
3.8536e-07 -0
3.8568e-07 -0
3.86e-07 -0
3.8632e-07 -0
3.8664e-07 -0
3.8697e-07 -0
3.8729e-07 -0
3.8761e-07 -0
3.8793e-07 -0
3.8826e-07 -0
3.8858e-07 -0
3.8891e-07 -0
3.8923e-07 -0
3.8956e-07 -0
3.8988e-07 -0
3.9021e-07 -0
3.9053e-07 -0
3.9086e-07 -0
3.9118e-07 -0
3.9151e-07 -0
3.9184e-07 -0
3.9216e-07 -0
3.9249e-07 -0
3.9282e-07 -0
3.9315e-07 -0
3.9347e-07 -0
3.938e-07 -0
3.9413e-07 -0
3.9446e-07 -0
3.9479e-07 -0
3.9512e-07 -0
3.9545e-07 -0
3.9578e-07 -0
3.9611e-07 -0
3.9644e-07 -0
3.9677e-07 -0
3.971e-07 -0
3.9743e-07 -0
3.9776e-07 -0
3.9809e-07 -0
3.9843e-07 -0
3.9876e-07 -0
3.9909e-07 -0
3.9942e-07 -0
3.9976e-07 -0
4.0009e-07 -0
4.0042e-07 -0
4.0076e-07 -0
4.0109e-07 -0
4.0143e-07 -0
4.0176e-07 -0
4.021e-07 -0
4.0243e-07 -0
4.0277e-07 -0
4.031e-07 -0
4.0344e-07 -0
4.0378e-07 -0
4.0411e-07 -0
4.0445e-07 -0
4.0479e-07 -0
4.0513e-07 -0
4.0546e-07 -0
4.058e-07 -0
4.0614e-07 -0
4.0648e-07 -0
4.0682e-07 -0
4.0716e-07 -0
4.075e-07 -0
4.0784e-07 -0
4.0818e-07 -0
4.0852e-07 -0
4.0886e-07 -0
4.092e-07 -0
4.0954e-07 -0
4.0988e-07 -0
4.1023e-07 -0
4.1057e-07 -0
4.1091e-07 -0
4.1125e-07 -0
4.116e-07 -0
4.1194e-07 -0
4.1228e-07 -0
4.1263e-07 -0
4.1297e-07 -0
4.1332e-07 -0
4.1366e-07 -0
4.1401e-07 -0
4.1435e-07 -0
4.147e-07 -0
4.1504e-07 -0
4.1539e-07 -0
4.1574e-07 -0
4.1608e-07 -0
4.1643e-07 -0
4.1678e-07 -0
4.1712e-07 -0
4.1747e-07 -0
4.1782e-07 -0
4.1817e-07 -0
4.1852e-07 -0
4.1887e-07 -0
4.1922e-07 -0
4.1957e-07 -0
4.1992e-07 -0
4.2027e-07 -0
4.2062e-07 -0
4.2097e-07 -0
4.2132e-07 -0
4.2167e-07 -0
4.2202e-07 -0
4.2238e-07 -0
4.2273e-07 -0
4.2308e-07 -0
4.2343e-07 -0
4.2379e-07 -0
4.2414e-07 -0
4.2449e-07 -0
4.2485e-07 -0
4.252e-07 -0
4.2556e-07 -0
4.2591e-07 -0
4.2627e-07 -0
4.2662e-07 -0
4.2698e-07 -0
4.2733e-07 -0
4.2769e-07 -0
4.2805e-07 -0
4.2841e-07 -0
4.2876e-07 -0
4.2912e-07 -0
4.2948e-07 -0
4.2984e-07 -0
4.302e-07 -0
4.3055e-07 -0
4.3091e-07 -0
4.3127e-07 -0
4.3163e-07 -0
4.3199e-07 -0
4.3235e-07 -0
4.3271e-07 -0
4.3307e-07 -0
4.3344e-07 -0
4.338e-07 -0
4.3416e-07 -0
4.3452e-07 -0
4.3488e-07 -0
4.3525e-07 -0
4.3561e-07 -0
4.3597e-07 -0
4.3634e-07 -0
4.367e-07 -0
4.3707e-07 -0
4.3743e-07 -0
4.3779e-07 -0
4.3816e-07 -0
4.3853e-07 -0
4.3889e-07 -0
4.3926e-07 -0
4.3962e-07 -0
4.3999e-07 -0
4.4036e-07 -0
4.4073e-07 -0
4.4109e-07 -0
4.4146e-07 -0
4.4183e-07 -0
4.422e-07 -0
4.4257e-07 -0
4.4294e-07 -0
4.4331e-07 -0
4.4368e-07 -0
4.4405e-07 -0
4.4442e-07 -0
4.4479e-07 -0
4.4516e-07 -0
4.4553e-07 -0
4.459e-07 -0
4.4627e-07 -0
4.4664e-07 -0
4.4702e-07 -0
4.4739e-07 -0
4.4776e-07 -0
4.4814e-07 -0
4.4851e-07 -0
4.4889e-07 -0
4.4926e-07 -0
4.4963e-07 -0
4.5001e-07 -0
4.5038e-07 -0
4.5076e-07 -0
4.5114e-07 -0
4.5151e-07 -0
4.5189e-07 -0
4.5227e-07 -0
4.5264e-07 -0
4.5302e-07 -0
4.534e-07 -0
4.5378e-07 -0
4.5416e-07 -0
4.5454e-07 -0
4.5491e-07 -0
4.5529e-07 -0
4.5567e-07 -0
4.5605e-07 -0
4.5643e-07 -0
4.5682e-07 -0
4.572e-07 -0
4.5758e-07 -0
4.5796e-07 -0
4.5834e-07 -0
4.5872e-07 -0
4.5911e-07 -0
4.5949e-07 -0
4.5987e-07 -0
4.6026e-07 -0
4.6064e-07 -0
4.6102e-07 -0
4.6141e-07 -0
4.6179e-07 -0
4.6218e-07 -0
4.6256e-07 -0
4.6295e-07 -0
4.6334e-07 -0
4.6372e-07 -0
4.6411e-07 -0
4.645e-07 -0
4.6489e-07 -0
4.6527e-07 -0
4.6566e-07 -0
4.6605e-07 -0
4.6644e-07 -0
4.6683e-07 -0
4.6722e-07 -0
4.6761e-07 -0
4.68e-07 -0
4.6839e-07 -0
4.6878e-07 -0
4.6917e-07 -0
4.6956e-07 -0
4.6995e-07 -0
4.7034e-07 -0
4.7074e-07 -0
4.7113e-07 -0
4.7152e-07 -0
4.7192e-07 -0
4.7231e-07 -0
4.727e-07 -0
4.731e-07 -0
4.7349e-07 -0
4.7389e-07 -0
4.7428e-07 -0
4.7468e-07 -0
4.7507e-07 -0
4.7547e-07 -0
4.7587e-07 -0
4.7626e-07 -0
4.7666e-07 -0
4.7706e-07 -0
4.7746e-07 -0
4.7786e-07 -0
4.7825e-07 -0
4.7865e-07 -0
4.7905e-07 -0
4.7945e-07 -0
4.7985e-07 -0
4.8025e-07 -0
4.8065e-07 -0
4.8105e-07 -0
4.8146e-07 -0
4.8186e-07 -0
4.8226e-07 -0
4.8266e-07 -0
4.8306e-07 -0
4.8347e-07 -0
4.8387e-07 -0
4.8427e-07 -0
4.8468e-07 -0
4.8508e-07 -0
4.8549e-07 -0
4.8589e-07 -0
4.863e-07 -0
4.867e-07 -0
4.8711e-07 -0
4.8752e-07 -0
4.8792e-07 -0
4.8833e-07 -0
4.8874e-07 -0
4.8914e-07 -0
4.8955e-07 -0
4.8996e-07 -0
4.9037e-07 -0
4.9078e-07 -0
4.9119e-07 -0
4.916e-07 -0
4.9201e-07 -0
4.9242e-07 -0
4.9283e-07 -0
4.9324e-07 -0
4.9365e-07 -0
4.9406e-07 -0
4.9448e-07 -0
4.9489e-07 -0
4.953e-07 -0
4.9571e-07 -0
4.9613e-07 -0
4.9654e-07 -0
4.9696e-07 -0
4.9737e-07 -0
4.9779e-07 -0
4.982e-07 -0
4.9862e-07 -0
4.9903e-07 -0
4.9945e-07 -0
4.9986e-07 -0
5.0028e-07 -0
5.007e-07 -0
5.0112e-07 -0
5.0154e-07 -0
5.0195e-07 -0
5.0237e-07 -0
5.0279e-07 -0
5.0321e-07 -0
5.0363e-07 -0
5.0405e-07 -0
5.0447e-07 -0
5.0489e-07 -0
5.0531e-07 -0
5.0573e-07 -0
5.0616e-07 -0
5.0658e-07 -0
5.07e-07 -0
5.0742e-07 -0
5.0785e-07 -0
5.0827e-07 -0
5.087e-07 -0
5.0912e-07 -0
5.0954e-07 -0
5.0997e-07 -0
5.104e-07 -0
5.1082e-07 -0
5.1125e-07 -0
5.1167e-07 -0
5.121e-07 -0
5.1253e-07 -0
5.1296e-07 -0
5.1338e-07 -0
5.1381e-07 -0
5.1424e-07 -0
5.1467e-07 -0
5.151e-07 -0
5.1553e-07 -0
5.1596e-07 -0
5.1639e-07 -0
5.1682e-07 -0
5.1725e-07 -0
5.1768e-07 -0
5.1811e-07 -0
5.1855e-07 -0
5.1898e-07 -0
5.1941e-07 -0
5.1984e-07 -0
5.2028e-07 -0
5.2071e-07 -0
5.2115e-07 -0
5.2158e-07 -0
5.2202e-07 -0
5.2245e-07 -0
5.2289e-07 -0
5.2332e-07 -0
5.2376e-07 -0
5.242e-07 -0
5.2464e-07 -0
5.2507e-07 -0
5.2551e-07 -0
5.2595e-07 -0
5.2639e-07 -0
5.2683e-07 -0
5.2727e-07 -0
5.2771e-07 -0
5.2815e-07 -0
5.2859e-07 -0
5.2903e-07 -0
5.2947e-07 -0
5.2991e-07 -0
5.3035e-07 -0
5.308e-07 -0
5.3124e-07 -0
5.3168e-07 -0
5.3213e-07 -0
5.3257e-07 -0
5.3301e-07 -0
5.3346e-07 -0
5.339e-07 -0
5.3435e-07 -0
5.3479e-07 -0
5.3524e-07 -0
5.3569e-07 -0
5.3613e-07 -0
5.3658e-07 -0
5.3703e-07 -0
5.3748e-07 -0
5.3793e-07 -0
5.3837e-07 -0
5.3882e-07 -0
5.3927e-07 -0
5.3972e-07 -0
5.4017e-07 -0
5.4062e-07 -0
5.4107e-07 -0
5.4153e-07 -0
5.4198e-07 -0
5.4243e-07 -0
5.4288e-07 -0
5.4334e-07 -0
5.4379e-07 -0
5.4424e-07 -0
5.447e-07 -0
5.4515e-07 -0
5.4561e-07 -0
5.4606e-07 -0
5.4652e-07 -0
5.4697e-07 -0
5.4743e-07 -0
5.4788e-07 -0
5.4834e-07 -0
5.488e-07 -0
5.4926e-07 -0
5.4972e-07 -0
5.5017e-07 -0
5.5063e-07 -0
5.5109e-07 -0
5.5155e-07 -0
5.5201e-07 -0
5.5247e-07 -0
5.5293e-07 -0
5.5339e-07 -0
5.5386e-07 -0
5.5432e-07 -0
5.5478e-07 -0
5.5524e-07 -0
5.5571e-07 -0
5.5617e-07 -0
5.5663e-07 -0
5.571e-07 -0
5.5756e-07 -0
5.5803e-07 -0
5.5849e-07 -0
5.5896e-07 -0
5.5943e-07 -0
5.5989e-07 -0
5.6036e-07 -0
5.6083e-07 -0
5.613e-07 -0
5.6176e-07 -0
5.6223e-07 -0
5.627e-07 -0
5.6317e-07 -0
5.6364e-07 -0
5.6411e-07 -0
5.6458e-07 -0
5.6505e-07 -0
5.6552e-07 -0
5.66e-07 -0
5.6647e-07 -0
5.6694e-07 -0
5.6741e-07 -0
5.6789e-07 -0
5.6836e-07 -0
5.6883e-07 -0
5.6931e-07 -0
5.6978e-07 -0
5.7026e-07 -0
5.7074e-07 -0
5.7121e-07 -0
5.7169e-07 5.6245e-39
5.7216e-07 6.8043e-38
5.7264e-07 2.0762e-37
5.7312e-07 3.555e-37
5.736e-07 4.928e-37
5.7408e-07 6.5371e-37
5.7456e-07 8.5525e-37
5.7503e-07 1.1027e-36
5.7551e-07 1.4221e-36
5.7599e-07 1.8863e-36
5.7647e-07 2.6325e-36
5.7696e-07 3.917e-36
5.7744e-07 6.7259e-36
5.7792e-07 1.7248e-35
5.784e-07 1.0382e-32
5.7888e-07 3.0644e-32
5.7937e-07 3.2959e-32
5.7985e-07 1.965e-32
5.8033e-07 1.6189e-32
5.8082e-07 1.5634e-32
5.813e-07 1.2465e-32
5.8179e-07 8.755e-33
5.8227e-07 5.7296e-33
5.8276e-07 3.2222e-33
5.8324e-07 1.8853e-33
5.8373e-07 1.1311e-33
5.8422e-07 6.2209e-34
5.8471e-07 3.4627e-34
5.8519e-07 1.6607e-34
5.8568e-07 3.1759e-35
5.8617e-07 1.0494e-36
5.8666e-07 4.5393e-37
5.8715e-07 3.13e-37
5.8764e-07 2.0532e-37
5.8813e-07 1.2755e-37
5.8862e-07 7.5684e-38
5.8911e-07 4.2481e-38
5.896e-07 2.2648e-38
5.9009e-07 1.1643e-38
5.9059e-07 5.6741e-39
5.9108e-07 2.6475e-39
5.9157e-07 1.1341e-39
5.9206e-07 4.033e-40
5.9256e-07 8.3129e-41
5.9305e-07 3.5852e-42
5.9355e-07 -0
5.9404e-07 -0
5.9454e-07 -0
5.9503e-07 -0
5.9553e-07 -0
5.9603e-07 -0
5.9652e-07 -0
5.9702e-07 -0
5.9752e-07 -0
5.9802e-07 -0
5.9852e-07 -0
5.9902e-07 -0
5.9952e-07 -0
6.0002e-07 -0
6.0052e-07 -0
6.0102e-07 -0
6.0152e-07 -0
6.0202e-07 -0
6.0252e-07 -0
6.0303e-07 -0
6.0353e-07 -0
6.0403e-07 -0
6.0454e-07 -0
6.0504e-07 -0
6.0555e-07 -0
6.0605e-07 -0
6.0656e-07 -0
6.0706e-07 -0
6.0757e-07 -0
6.0808e-07 -0
6.0858e-07 -0
6.0909e-07 -0
6.096e-07 -0
6.1011e-07 -0
6.1062e-07 -0
6.1113e-07 -0
6.1164e-07 -0
6.1215e-07 -0
6.1266e-07 -0
6.1317e-07 -0
6.1368e-07 -0
6.1419e-07 -0
6.147e-07 -0
6.1522e-07 -0
6.1573e-07 -0
6.1624e-07 -0
6.1676e-07 -0
6.1727e-07 -0
6.1779e-07 -0
6.183e-07 -0
6.1882e-07 -0
6.1933e-07 1.7718e-37
6.1985e-07 2.4881e-36
6.2037e-07 8.1636e-36
6.2089e-07 1.4443e-35
6.214e-07 1.9904e-35
6.2192e-07 2.6253e-35
6.2244e-07 3.4112e-35
6.2296e-07 4.3368e-35
6.2348e-07 5.4707e-35
6.24e-07 6.9617e-35
6.2452e-07 9.0248e-35
6.2504e-07 1.2176e-34
6.2556e-07 1.7524e-34
6.2609e-07 2.8362e-34
6.2661e-07 6.127e-34
6.2713e-07 1.7792e-31
6.2765e-07 7.7146e-31
6.2818e-07 1.0831e-30
6.287e-07 7.0049e-31
6.2923e-07 4.6962e-31
6.2975e-07 5.1191e-31
6.3028e-07 4.6058e-31
6.308e-07 3.562e-31
6.3133e-07 2.562e-31
6.3185e-07 1.6638e-31
6.3238e-07 1.0536e-31
6.3291e-07 6.4472e-32
6.3344e-07 3.6116e-32
6.3397e-07 1.9985e-32
6.3449e-07 1.0663e-32
6.3502e-07 5.5738e-33
6.3555e-07 3.0835e-33
6.3608e-07 1.4561e-33
6.3661e-07 7.0749e-34
6.3715e-07 2.9328e-34
6.3768e-07 1.5975e-34
6.3821e-07 1.1977e-34
6.3874e-07 4.9985e-36
6.3927e-07 2.8856e-36
6.3981e-07 1.5958e-36
6.4034e-07 8.5312e-37
6.4088e-07 4.406e-37
6.4141e-07 2.2166e-37
6.4195e-07 1.0913e-37
6.4248e-07 5.2757e-38
6.4302e-07 2.5071e-38
6.4355e-07 1.1613e-38
6.4409e-07 5.1909e-39
6.4463e-07 2.2132e-39
6.4516e-07 8.7764e-40
6.457e-07 2.9409e-40
6.4624e-07 5.8471e-41
6.4678e-07 -0
6.4732e-07 -0
6.4786e-07 -0
6.484e-07 -0
6.4894e-07 -0
6.4948e-07 -0
6.5003e-07 -0
6.5057e-07 -0
6.5111e-07 -0
6.5165e-07 -0
6.522e-07 -0
6.5274e-07 -0
6.5329e-07 -0
6.5383e-07 -0
6.5438e-07 -0
6.5492e-07 -0
6.5547e-07 -0
6.5601e-07 -0
6.5656e-07 -0
6.5711e-07 -0
6.5766e-07 -0
6.5821e-07 -0
6.5876e-07 -0
6.5931e-07 -0
6.5986e-07 -0
6.6041e-07 -0
6.6096e-07 -0
6.6151e-07 -0
6.6206e-07 -0
6.6261e-07 -0
6.6317e-07 -0
6.6372e-07 -0
6.6427e-07 -0
6.6483e-07 -0
6.6538e-07 -0
6.6594e-07 -0
6.6649e-07 -0
6.6705e-07 -0
6.676e-07 -0
6.6816e-07 -0
6.6872e-07 -0
6.6928e-07 -0
6.6983e-07 -0
6.7039e-07 -0
6.7095e-07 -0
6.7151e-07 -0
6.7207e-07 -0
6.7263e-07 -0
6.7319e-07 -0
6.7376e-07 -0
6.7432e-07 -0
6.7488e-07 -0
6.7544e-07 -0
6.7601e-07 -0
6.7657e-07 6.1644e-44
6.7714e-07 1.4332e-35
6.777e-07 8.7723e-35
6.7827e-07 2.2498e-34
6.7883e-07 3.6084e-34
6.794e-07 4.7719e-34
6.7996e-07 6.1374e-34
6.8053e-07 7.8402e-34
6.811e-07 9.8605e-34
6.8167e-07 1.2175e-33
6.8224e-07 1.5011e-33
6.8281e-07 1.8882e-33
6.8338e-07 2.4431e-33
6.8395e-07 3.2708e-33
6.8452e-07 4.6934e-33
6.8509e-07 7.5213e-33
6.8566e-07 1.5871e-32
6.8623e-07 1.1687e-30
6.868e-07 4.9263e-30
6.8738e-07 8.0286e-30
6.8795e-07 5.7678e-30
6.8852e-07 3.5167e-30
6.891e-07 3.6083e-30
6.8967e-07 3.8442e-30
6.9025e-07 3.2871e-30
6.9082e-07 2.569e-30
6.914e-07 1.8625e-30
6.9198e-07 1.4003e-30
6.9255e-07 9.8167e-31
6.9313e-07 6.7697e-31
6.9371e-07 4.593e-31
6.9429e-07 2.7572e-31
6.9487e-07 1.6408e-31
6.9545e-07 1.2023e-31
6.9603e-07 9.6457e-32
6.9661e-07 5.7096e-32
6.9719e-07 2.7998e-32
6.9777e-07 2.5237e-32
6.9835e-07 2.3994e-32
6.9894e-07 1.9672e-32
6.9952e-07 1.4155e-32
7.001e-07 9.7164e-33
7.0069e-07 6.1329e-33
7.0127e-07 3.8079e-33
7.0186e-07 2.1829e-33
7.0244e-07 1.1062e-33
7.0303e-07 3.1756e-34
7.0361e-07 5.7759e-36
7.042e-07 3.1611e-36
7.0479e-07 2.0412e-36
7.0538e-07 1.3896e-36
7.0596e-07 9.4342e-37
7.0655e-07 6.4638e-37
7.0714e-07 4.6734e-37
7.0773e-07 3.3774e-37
7.0832e-07 2.2792e-37
7.0891e-07 1.4199e-37
7.0951e-07 8.3793e-38
7.101e-07 4.638e-38
7.1069e-07 2.4135e-38
7.1128e-07 1.1416e-38
7.1188e-07 4.6917e-39
7.1247e-07 1.4825e-39
7.1306e-07 2.4944e-40
7.1366e-07 -0
7.1425e-07 -0
7.1485e-07 -0
7.1545e-07 -0
7.1604e-07 -0
7.1664e-07 -0
7.1724e-07 -0
7.1784e-07 -0
7.1844e-07 -0
7.1904e-07 -0
7.1964e-07 -0
7.2024e-07 -0
7.2084e-07 -0
7.2144e-07 -0
7.2204e-07 -0
7.2264e-07 -0
7.2324e-07 -0
7.2385e-07 -0
7.2445e-07 -0
7.2506e-07 -0
7.2566e-07 -0
7.2627e-07 -0
7.2687e-07 -0
7.2748e-07 -0
7.2809e-07 -0
7.2869e-07 -0
7.293e-07 -0
7.2991e-07 -0
7.3052e-07 -0
7.3113e-07 -0
7.3174e-07 -0
7.3235e-07 -0
7.3296e-07 -0
7.3357e-07 -0
7.3418e-07 -0
7.348e-07 -0
7.3541e-07 -0
7.3602e-07 -0
7.3664e-07 -0
7.3725e-07 -0
7.3787e-07 9.2713e-43
7.3848e-07 6.374e-42
7.391e-07 2.2046e-41
7.3971e-07 5.8209e-41
7.4033e-07 1.2294e-40
7.4095e-07 2.3765e-40
7.4157e-07 4.2262e-40
7.4218e-07 7.1257e-40
7.428e-07 1.1287e-39
7.4342e-07 1.7022e-39
7.4404e-07 2.4599e-39
7.4466e-07 3.4464e-39
7.4529e-07 4.6935e-39
7.4591e-07 6.2219e-39
7.4653e-07 8.065e-39
7.4715e-07 2.2347e-37
7.4778e-07 6.1087e-35
7.484e-07 5.1676e-34
7.4902e-07 1.7916e-33
7.4965e-07 3.6428e-33
7.5027e-07 5.3776e-33
7.509e-07 6.903e-33
7.5153e-07 8.6535e-33
7.5215e-07 1.1006e-32
7.5278e-07 1.3697e-32
7.5341e-07 1.6762e-32
7.5404e-07 2.029e-32
7.5467e-07 2.464e-32
7.553e-07 3.0289e-32
7.5593e-07 3.7936e-32
7.5656e-07 4.9594e-32
7.5719e-07 6.8291e-32
7.5782e-07 1.0373e-31
7.5845e-07 3.2425e-31
7.5908e-07 4.0243e-30
7.5972e-07 1.5947e-29
7.6035e-07 3.4383e-29
7.6099e-07 3.4108e-29
7.6162e-07 1.9974e-29
7.6226e-07 1.4612e-29
7.6289e-07 1.7475e-29
7.6353e-07 1.9274e-29
7.6417e-07 1.695e-29
7.648e-07 1.3267e-29
7.6544e-07 9.6969e-30
7.6608e-07 7.0452e-30
7.6672e-07 5.0467e-30
7.6736e-07 3.4354e-30
7.68e-07 2.3067e-30
7.6864e-07 1.5871e-30
7.6928e-07 1.1547e-30
7.6992e-07 8.069e-31
7.7056e-07 4.841e-31
7.7121e-07 2.9299e-31
7.7185e-07 2.1832e-31
7.7249e-07 1.8565e-31
7.7314e-07 1.4599e-31
7.7378e-07 1.0525e-31
7.7443e-07 6.995e-32
7.7508e-07 4.4497e-32
7.7572e-07 2.6443e-32
7.7637e-07 1.4648e-32
7.7702e-07 8.033e-33
7.7766e-07 4.2629e-33
7.7831e-07 1.819e-33
7.7896e-07 6.0579e-34
7.7961e-07 8.4868e-35
7.8026e-07 4.2398e-35
7.8091e-07 2.2239e-35
7.8157e-07 1.2142e-35
7.8222e-07 6.964e-36
7.8287e-07 4.4128e-36
7.8352e-07 3.0926e-36
7.8418e-07 2.2151e-36
7.8483e-07 1.4977e-36
7.8549e-07 9.3991e-37
7.8614e-07 5.6022e-37
7.868e-07 3.2281e-37
7.8745e-07 1.7372e-37
7.8811e-07 8.6655e-38
7.8877e-07 4.1239e-38
7.8943e-07 1.8347e-38
7.9008e-07 7.0177e-39
7.9074e-07 1.9754e-39
7.914e-07 2.7673e-40
7.9206e-07 -0
7.9272e-07 -0
7.9339e-07 -0
7.9405e-07 -0
7.9471e-07 -0
7.9537e-07 -0
7.9604e-07 -0
7.967e-07 -0
7.9736e-07 -0
7.9803e-07 -0
7.987e-07 -0
7.9936e-07 -0
8.0003e-07 -0
8.007e-07 -0
8.0136e-07 -0
8.0203e-07 -0
8.027e-07 -0
8.0337e-07 -0
8.0404e-07 -0
8.0471e-07 -0
8.0538e-07 -0
8.0606e-07 -0
8.0673e-07 -0
8.074e-07 -0
8.0807e-07 -0
8.0875e-07 -0
8.0942e-07 -0
8.101e-07 -0
8.1077e-07 -0
8.1145e-07 -0
8.1213e-07 -0
8.1281e-07 -0
8.1348e-07 -0
8.1416e-07 -0
8.1484e-07 -0
8.1552e-07 -0
8.162e-07 -0
8.1688e-07 -0
8.1756e-07 -0
8.1825e-07 -0
8.1893e-07 -0
8.1961e-07 -0
8.203e-07 -0
8.2098e-07 -0
8.2166e-07 -0
8.2235e-07 -0
8.2304e-07 -0
8.2372e-07 -0
8.2441e-07 -0
8.251e-07 -0
8.2579e-07 -0
8.2647e-07 -0
8.2716e-07 -0
8.2785e-07 -0
8.2854e-07 -0
8.2924e-07 -0
8.2993e-07 -0
8.3062e-07 -0
8.3131e-07 -0
8.3201e-07 -0
8.327e-07 -0
8.334e-07 -0
8.3409e-07 -0
8.3479e-07 -0
8.3548e-07 -0
8.3618e-07 -0
8.3688e-07 -0
8.3758e-07 -0
8.3827e-07 -0
8.3897e-07 -0
8.3967e-07 -0
8.4037e-07 -0
8.4107e-07 -0
8.4178e-07 -0
8.4248e-07 -0
8.4318e-07 -0
8.4388e-07 -0
8.4459e-07 -0
8.4529e-07 1.121e-40
8.46e-07 3.5779e-39
8.467e-07 2.1876e-38
8.4741e-07 7.0058e-38
8.4812e-07 1.5288e-37
8.4883e-07 2.529e-37
8.4953e-07 3.4157e-37
8.5024e-07 4.1956e-37
8.5095e-07 5.0979e-37
8.5166e-07 6.2862e-37
8.5237e-07 7.8009e-37
8.5308e-07 9.4273e-37
8.5379e-07 1.138e-36
8.5451e-07 1.3639e-36
8.5522e-07 1.6387e-36
8.5593e-07 1.9643e-36
8.5665e-07 2.4462e-36
8.5736e-07 3.1012e-36
8.5808e-07 4.1073e-36
8.5879e-07 5.9121e-36
8.5951e-07 1.1276e-35
8.6023e-07 1.1361e-33
8.6094e-07 5.23e-33
8.6166e-07 1.233e-32
8.6238e-07 1.8257e-32
8.631e-07 1.7811e-32
8.6382e-07 1.1582e-32
8.6454e-07 6.7585e-33
8.6526e-07 8.557e-33
8.6598e-07 1.2198e-32
8.6671e-07 1.318e-32
8.6743e-07 1.1084e-32
8.6815e-07 8.2261e-33
8.6888e-07 5.4993e-33
8.696e-07 3.2468e-33
8.7033e-07 1.6849e-33
8.7105e-07 1.2266e-33
8.7178e-07 1.3611e-34
8.7251e-07 2.528e-36
8.7324e-07 1.8652e-36
8.7396e-07 1.4734e-36
8.7469e-07 1.2191e-36
8.7542e-07 1.0746e-36
8.7615e-07 9.6201e-37
8.7688e-07 8.4015e-37
8.7762e-07 6.9706e-37
8.7835e-07 5.7168e-37
8.7908e-07 4.6359e-37
8.7981e-07 3.8389e-37
8.8055e-07 3.2387e-37
8.8128e-07 2.5186e-37
8.8202e-07 1.741e-37
8.8275e-07 1.092e-37
8.8349e-07 6.4461e-38
8.8423e-07 3.4157e-38
8.8496e-07 1.6059e-38
8.857e-07 6.2434e-39
8.8644e-07 1.5911e-39
8.8718e-07 1.6989e-40
8.8792e-07 -0
8.8866e-07 -0
8.894e-07 -0
8.9015e-07 -0
8.9089e-07 -0
8.9163e-07 -0
8.9237e-07 -0
8.9312e-07 -0
8.9386e-07 -0
8.9461e-07 -0
8.9536e-07 -0
8.961e-07 -0
8.9685e-07 -0
8.976e-07 -0
8.9835e-07 -0
8.991e-07 -0
8.9985e-07 -0
9.006e-07 -0
9.0135e-07 -0
9.021e-07 -0
9.0285e-07 -0
9.0361e-07 -0
9.0436e-07 -0
9.0512e-07 -0
9.0587e-07 -0
9.0663e-07 -0
9.0738e-07 -0
9.0814e-07 -0
9.089e-07 -0
9.0966e-07 -0
9.1041e-07 -0
9.1117e-07 -0
9.1193e-07 -0
9.1269e-07 -0
9.1346e-07 -0
9.1422e-07 -0
9.1498e-07 -0
9.1574e-07 -0
9.1651e-07 -0
9.1727e-07 -0
9.1804e-07 -0
9.188e-07 -0
9.1957e-07 -0
9.2034e-07 -0
9.211e-07 -0
9.2187e-07 -0
9.2264e-07 -0
9.2341e-07 -0
9.2418e-07 -0
9.2495e-07 -0
9.2572e-07 -0
9.265e-07 -0
9.2727e-07 -0
9.2804e-07 -0
9.2882e-07 -0
9.2959e-07 -0
9.3037e-07 -0
9.3114e-07 -0
9.3192e-07 -0
9.327e-07 -0
9.3348e-07 -0
9.3426e-07 -0
9.3503e-07 -0
9.3581e-07 -0
9.366e-07 -0
9.3738e-07 -0
9.3816e-07 -0
9.3894e-07 -0
9.3972e-07 -0
9.4051e-07 -0
9.4129e-07 -0
9.4208e-07 -0
9.4286e-07 -0
9.4365e-07 -0
9.4444e-07 -0
9.4523e-07 -0
9.4601e-07 -0
9.468e-07 -0
9.4759e-07 -0
9.4838e-07 -0
9.4918e-07 -0
9.4997e-07 -0
9.5076e-07 -0
9.5155e-07 -0
9.5235e-07 -0
9.5314e-07 -0
9.5394e-07 -0
9.5473e-07 -0
9.5553e-07 -0
9.5633e-07 -0
9.5712e-07 -0
9.5792e-07 -0
9.5872e-07 -0
9.5952e-07 -0
9.6032e-07 -0
9.6112e-07 -0
9.6192e-07 -0
9.6273e-07 -0
9.6353e-07 -0
9.6433e-07 -0
9.6514e-07 -0
9.6594e-07 -0
9.6675e-07 -0
9.6756e-07 -0
9.6836e-07 -0
9.6917e-07 -0
9.6998e-07 -0
9.7079e-07 -0
9.716e-07 -0
9.7241e-07 -0
9.7322e-07 -0
9.7403e-07 -0
9.7484e-07 -0
9.7566e-07 -0
9.7647e-07 -0
9.7729e-07 -0
9.781e-07 -0
9.7892e-07 -0
9.7973e-07 -0
9.8055e-07 -0
9.8137e-07 -0
9.8219e-07 -0
9.8301e-07 -0
9.8383e-07 -0
9.8465e-07 -0
9.8547e-07 -0
9.8629e-07 -0
9.8711e-07 -0
9.8794e-07 -0
9.8876e-07 -0
9.8959e-07 -0
9.9041e-07 -0
9.9124e-07 -0
9.9207e-07 -0
9.9289e-07 -0
9.9372e-07 -0
9.9455e-07 -0
9.9538e-07 -0
9.9621e-07 -0
9.9704e-07 -0
9.9787e-07 -0
9.9871e-07 -0
9.9954e-07 -0
1.0004e-06 -0
1.0012e-06 -0
1.002e-06 -0
1.0029e-06 -0
1.0037e-06 -0
1.0046e-06 -0
1.0054e-06 -0
1.0062e-06 -0
1.0071e-06 -0
1.0079e-06 -0
1.0087e-06 -0
1.0096e-06 -0
1.0104e-06 -0
1.0113e-06 -0
1.0121e-06 -0
1.013e-06 -0
1.0138e-06 -0
1.0147e-06 -0
1.0155e-06 -0
1.0163e-06 -0
1.0172e-06 -0
1.018e-06 -0
1.0189e-06 -0
1.0197e-06 -0
1.0206e-06 -0
1.0214e-06 -0
1.0223e-06 -0
1.0232e-06 -0
1.024e-06 -0
1.0249e-06 -0
1.0257e-06 -0
1.0266e-06 -0
1.0274e-06 4.5124e-43
1.0283e-06 5.003e-42
1.0291e-06 2.2239e-41
1.03e-06 7.4555e-41
