2.8e-07 2.1859e-31
2.8047e-07 2.139e-31
2.8094e-07 2.8926e-31
2.8141e-07 2.2694e-31
2.8188e-07 1.5635e-31
2.8235e-07 7.9669e-32
2.8282e-07 4.7145e-32
2.8329e-07 6.7824e-33
2.8377e-07 4.6797e-33
2.8424e-07 2.5734e-33
2.8472e-07 6.0708e-34
2.8519e-07 6.5239e-33
2.8567e-07 5.3067e-32
2.8615e-07 1.0933e-31
2.8663e-07 1.391e-31
2.8711e-07 9.6216e-32
2.8759e-07 4.9491e-32
2.8807e-07 2.9701e-32
2.8855e-07 1.5952e-32
2.8903e-07 7.8319e-33
2.8951e-07 3.4851e-33
2.9e-07 1.0265e-33
2.9048e-07 1.3922e-34
2.9097e-07 1.0293e-36
2.9145e-07 3.2338e-36
2.9194e-07 9.0065e-33
2.9243e-07 3.3934e-32
2.9292e-07 4.3021e-32
2.9341e-07 2.5047e-32
2.939e-07 8.5407e-33
2.9439e-07 1.6494e-33
2.9488e-07 5.0023e-36
2.9538e-07 1.6993e-37
2.9587e-07 2.3701e-38
2.9637e-07 1.1526e-39
2.9686e-07 -0
2.9736e-07 -0
2.9785e-07 -0
2.9835e-07 -0
2.9885e-07 -0
2.9935e-07 -0
2.9985e-07 -0
3.0035e-07 -0
3.0085e-07 -0
3.0136e-07 -0
3.0186e-07 -0
3.0237e-07 -0
3.0287e-07 -0
3.0338e-07 -0
3.0389e-07 -0
3.0439e-07 -0
3.049e-07 -0
3.0541e-07 -0
3.0592e-07 -0
3.0643e-07 -0
3.0695e-07 -0
3.0746e-07 -0
3.0797e-07 -0
3.0849e-07 -0
3.0901e-07 -0
3.0952e-07 -0
3.1004e-07 -0
3.1056e-07 -0
3.1108e-07 -0
3.116e-07 -0
3.1212e-07 -0
3.1264e-07 -0
3.1316e-07 -0
3.1369e-07 -0
3.1421e-07 -0
3.1474e-07 -0
3.1526e-07 -0
3.1579e-07 -0
3.1632e-07 -0
3.1685e-07 -0
3.1738e-07 -0
3.1791e-07 -0
3.1844e-07 -0
3.1897e-07 -0
3.195e-07 -0
3.2004e-07 -0
3.2057e-07 -0
3.2111e-07 -0
3.2165e-07 -0
3.2218e-07 -0
3.2272e-07 -0
3.2326e-07 -0
3.238e-07 -0
3.2435e-07 -0
3.2489e-07 -0
3.2543e-07 -0
3.2597e-07 -0
3.2652e-07 -0
3.2707e-07 -0
3.2761e-07 -0
3.2816e-07 -0
3.2871e-07 -0
3.2926e-07 -0
3.2981e-07 -0
3.3036e-07 -0
3.3091e-07 -0
3.3147e-07 -0
3.3202e-07 -0
3.3258e-07 -0
3.3313e-07 -0
3.3369e-07 -0
3.3425e-07 -0
3.3481e-07 -0
3.3537e-07 -0
3.3593e-07 -0
3.3649e-07 -0
3.3705e-07 -0
3.3761e-07 -0
3.3818e-07 -0
3.3874e-07 -0
3.3931e-07 -0
3.3988e-07 -0
3.4045e-07 -0
3.4102e-07 -0
3.4159e-07 -0
3.4216e-07 -0
3.4273e-07 -0
3.433e-07 -0
3.4388e-07 -0
3.4445e-07 -0
3.4503e-07 -0
3.456e-07 -0
3.4618e-07 -0
3.4676e-07 -0
3.4734e-07 -0
3.4792e-07 -0
3.485e-07 -0
3.4909e-07 -0
3.4967e-07 -0
3.5025e-07 -0
3.5084e-07 -0
3.5143e-07 -0
3.5201e-07 -0
3.526e-07 -0
3.5319e-07 -0
3.5378e-07 -0
3.5437e-07 -0
3.5497e-07 -0
3.5556e-07 -0
3.5615e-07 -0
3.5675e-07 -0
3.5735e-07 -0
3.5794e-07 -0
3.5854e-07 -0
3.5914e-07 -0
3.5974e-07 -0
3.6034e-07 -0
3.6095e-07 -0
3.6155e-07 -0
3.6215e-07 -0
3.6276e-07 -0
3.6337e-07 -0
3.6397e-07 -0
3.6458e-07 -0
3.6519e-07 -0
3.658e-07 -0
3.6642e-07 -0
3.6703e-07 -0
3.6764e-07 -0
3.6826e-07 -0
3.6887e-07 -0
3.6949e-07 -0
3.7011e-07 -0
3.7073e-07 -0
3.7135e-07 -0
3.7197e-07 -0
3.7259e-07 -0
3.7321e-07 -0
3.7384e-07 -0
3.7446e-07 -0
3.7509e-07 -0
3.7571e-07 -0
3.7634e-07 -0
3.7697e-07 -0
3.776e-07 -0
3.7823e-07 -0
3.7887e-07 -0
3.795e-07 -0
3.8013e-07 -0
3.8077e-07 -0
3.8141e-07 -0
3.8204e-07 -0
3.8268e-07 -0
3.8332e-07 -0
3.8396e-07 -0
3.846e-07 -0
3.8525e-07 -0
3.8589e-07 -0
3.8654e-07 -0
3.8718e-07 -0
3.8783e-07 -0
3.8848e-07 -0
3.8913e-07 -0
3.8978e-07 -0
3.9043e-07 -0
3.9108e-07 -0
3.9174e-07 -0
3.9239e-07 -0
3.9305e-07 -0
3.9371e-07 -0
3.9436e-07 -0
3.9502e-07 -0
3.9568e-07 -0
3.9635e-07 -0
3.9701e-07 -0
3.9767e-07 -0
3.9834e-07 -0
3.99e-07 -0
3.9967e-07 -0
4.0034e-07 -0
4.0101e-07 -0
4.0168e-07 -0
4.0235e-07 -0
4.0302e-07 -0
4.037e-07 -0
4.0437e-07 -0
4.0505e-07 -0
4.0573e-07 -0
4.064e-07 -0
4.0708e-07 -0
4.0776e-07 -0
4.0845e-07 -0
4.0913e-07 -0
4.0981e-07 -0
4.105e-07 -0
4.1118e-07 -0
4.1187e-07 -0
4.1256e-07 -0
4.1325e-07 -0
4.1394e-07 -0
4.1463e-07 -0
4.1533e-07 -0
4.1602e-07 -0
4.1672e-07 -0
4.1741e-07 -0
4.1811e-07 -0
4.1881e-07 -0
4.1951e-07 -0
4.2021e-07 -0
4.2092e-07 -0
4.2162e-07 -0
4.2232e-07 -0
4.2303e-07 -0
4.2374e-07 -0
4.2445e-07 -0
4.2516e-07 -0
4.2587e-07 -0
4.2658e-07 -0
4.2729e-07 -0
4.2801e-07 -0
4.2872e-07 -0
4.2944e-07 -0
4.3016e-07 -0
4.3088e-07 -0
4.316e-07 -0
4.3232e-07 -0
4.3304e-07 -0
4.3377e-07 -0
4.3449e-07 -0
4.3522e-07 -0
4.3595e-07 -0
4.3667e-07 -0
4.374e-07 -0
4.3814e-07 -0
4.3887e-07 -0
4.396e-07 -0
4.4034e-07 -0
4.4107e-07 -0
4.4181e-07 -0
4.4255e-07 -0
4.4329e-07 -0
4.4403e-07 -0
4.4477e-07 -0
4.4552e-07 -0
4.4626e-07 -0
4.4701e-07 -0
4.4776e-07 -0
4.485e-07 -0
4.4925e-07 -0
4.5001e-07 -0
4.5076e-07 -0
4.5151e-07 -0
4.5227e-07 -0
4.5302e-07 -0
4.5378e-07 -0
4.5454e-07 -0
4.553e-07 -0
4.5606e-07 -0
4.5682e-07 -0
4.5759e-07 -0
4.5835e-07 -0
4.5912e-07 -0
4.5989e-07 -0
4.6065e-07 -0
4.6142e-07 -0
4.622e-07 -0
4.6297e-07 -0
4.6374e-07 -0
4.6452e-07 -0
4.653e-07 -0
4.6607e-07 -0
4.6685e-07 -0
4.6763e-07 -0
4.6842e-07 -0
4.692e-07 -0
4.6998e-07 -0
4.7077e-07 -0
4.7156e-07 -0
4.7234e-07 -0
4.7313e-07 -0
4.7393e-07 -0
4.7472e-07 -0
4.7551e-07 -0
4.7631e-07 -0
4.771e-07 -0
4.779e-07 -0
4.787e-07 -0
4.795e-07 -0
4.803e-07 -0
4.8111e-07 -0
4.8191e-07 -0
4.8272e-07 -0
4.8352e-07 -0
4.8433e-07 -0
4.8514e-07 -0
4.8595e-07 -0
4.8676e-07 -0
4.8758e-07 -0
4.8839e-07 -0
4.8921e-07 -0
4.9003e-07 -0
4.9085e-07 -0
4.9167e-07 -0
4.9249e-07 -0
4.9331e-07 -0
4.9414e-07 -0
4.9496e-07 -0
4.9579e-07 -0
4.9662e-07 -0
4.9745e-07 -0
4.9828e-07 -0
4.9912e-07 -0
4.9995e-07 -0
5.0079e-07 -0
5.0162e-07 -0
5.0246e-07 -0
5.033e-07 -0
5.0415e-07 -0
5.0499e-07 -0
5.0583e-07 -0
5.0668e-07 -0
5.0753e-07 -0
5.0837e-07 -0
5.0922e-07 -0
5.1008e-07 -0
5.1093e-07 -0
5.1178e-07 -0
5.1264e-07 -0
5.135e-07 -0
5.1435e-07 -0
5.1521e-07 -0
5.1608e-07 -0
5.1694e-07 -0
5.178e-07 -0
5.1867e-07 -0
5.1954e-07 -0
5.204e-07 -0
5.2127e-07 -0
5.2215e-07 -0
5.2302e-07 -0
5.2389e-07 -0
5.2477e-07 -0
5.2565e-07 -0
5.2653e-07 -0
5.2741e-07 -0
5.2829e-07 -0
5.2917e-07 -0
5.3006e-07 -0
5.3094e-07 -0
5.3183e-07 -0
5.3272e-07 -0
5.3361e-07 -0
5.345e-07 -0
5.354e-07 -0
5.3629e-07 -0
5.3719e-07 -0
5.3809e-07 -0
5.3899e-07 -0
5.3989e-07 -0
5.4079e-07 -0
5.4169e-07 -0
5.426e-07 -0
5.4351e-07 -0
5.4442e-07 -0
5.4533e-07 -0
5.4624e-07 -0
5.4715e-07 -0
5.4807e-07 -0
5.4898e-07 -0
5.499e-07 -0
5.5082e-07 -0
5.5174e-07 -0
5.5266e-07 -0
5.5359e-07 -0
5.5451e-07 -0
5.5544e-07 -0
5.5637e-07 -0
5.573e-07 -0
5.5823e-07 -0
5.5917e-07 -0
5.601e-07 -0
5.6104e-07 -0
5.6198e-07 -0
5.6291e-07 -0
5.6386e-07 -0
5.648e-07 -0
5.6574e-07 -0
5.6669e-07 -0
5.6764e-07 -0
5.6859e-07 -0
5.6954e-07 -0
5.7049e-07 2.4658e-45
5.7144e-07 2.2836e-38
5.724e-07 1.2078e-37
5.7336e-07 3.0629e-37
5.7431e-07 5.6281e-37
5.7527e-07 9.6985e-37
5.7624e-07 1.898e-36
5.772e-07 3.4872e-35
5.7816e-07 8.3272e-33
5.7913e-07 1.8455e-32
5.801e-07 1.5779e-32
5.8107e-07 9.9167e-33
5.8204e-07 5.9762e-33
5.8301e-07 1.9153e-33
5.8399e-07 8.5826e-34
5.8497e-07 1.3254e-34
5.8594e-07 1.0388e-34
5.8692e-07 5.139e-37
5.8791e-07 1.3164e-37
5.8889e-07 5.0154e-38
5.8987e-07 1.5678e-38
5.9086e-07 4.1589e-39
5.9185e-07 8.7553e-40
5.9284e-07 1.1882e-40
5.9383e-07 4.5987e-42
5.9482e-07 -0
5.9582e-07 -0
5.9681e-07 -0
5.9781e-07 -0
5.9881e-07 -0
5.9981e-07 -0
6.0081e-07 -0
6.0182e-07 -0
6.0282e-07 -0
6.0383e-07 -0
6.0484e-07 -0
6.0585e-07 -0
6.0687e-07 -0
6.0788e-07 -0
6.089e-07 -0
6.0992e-07 -0
6.1094e-07 -0
6.1196e-07 -0
6.1298e-07 -0
6.14e-07 -0
6.1503e-07 -0
6.1606e-07 -0
6.1709e-07 -0
6.1812e-07 -1.4795e-44
6.1916e-07 1.0427e-36
6.2019e-07 5.2626e-36
6.2123e-07 1.2905e-35
6.2227e-07 2.3102e-35
6.2331e-07 3.7859e-35
6.2435e-07 6.5242e-35
6.2539e-07 1.4744e-34
6.2644e-07 9.828e-32
6.2749e-07 3.8748e-31
6.2854e-07 5.4436e-31
6.2959e-07 4.5449e-31
6.3064e-07 2.8849e-31
6.3169e-07 1.3692e-31
6.3275e-07 7.2994e-32
6.3381e-07 2.4282e-32
6.3487e-07 8.256e-33
6.3593e-07 1.4427e-33
6.3699e-07 3.2019e-34
6.3806e-07 5.1515e-35
6.3912e-07 3.8132e-36
6.4019e-07 1.0027e-36
6.4126e-07 2.8391e-37
6.4234e-07 7.2717e-38
6.4341e-07 1.699e-38
6.4449e-07 3.5536e-39
6.4556e-07 6.3051e-40
6.4664e-07 7.4959e-41
6.4772e-07 7.422e-43
6.4881e-07 -0
6.4989e-07 -0
6.5098e-07 -0
6.5207e-07 -0
6.5316e-07 -0
6.5425e-07 -0
6.5534e-07 -0
6.5644e-07 -0
6.5754e-07 -0
6.5864e-07 -0
6.5974e-07 -0
6.6084e-07 -0
6.6195e-07 -0
6.6305e-07 -0
6.6416e-07 -0
6.6527e-07 -0
6.6638e-07 -0
6.675e-07 -0
6.6861e-07 -0
6.6973e-07 -0
6.7085e-07 -0
6.7197e-07 -0
6.731e-07 -0
6.7422e-07 -0
6.7535e-07 -9.8631e-45
6.7648e-07 1.2246e-35
6.7761e-07 8.4158e-35
6.7874e-07 2.3464e-34
6.7988e-07 4.335e-34
6.8101e-07 6.9306e-34
6.8215e-07 1.0893e-33
6.8329e-07 1.861e-33
6.8444e-07 4.3553e-33
6.8558e-07 8.3887e-31
6.8673e-07 3.0857e-30
6.8788e-07 4.2116e-30
6.8903e-07 3.4155e-30
6.9018e-07 2.5311e-30
6.9133e-07 1.7443e-30
6.9249e-07 9.3116e-31
6.9365e-07 4.4507e-31
6.9481e-07 1.7698e-31
6.9597e-07 7.9626e-32
6.9713e-07 3.0756e-32
6.983e-07 1.6471e-32
6.9946e-07 1.1455e-32
7.0063e-07 6.9548e-33
7.0181e-07 2.403e-33
7.0298e-07 5.094e-34
7.0415e-07 9.9212e-36
7.0533e-07 1.1873e-36
7.0651e-07 5.3834e-37
7.0769e-07 2.6311e-37
7.0888e-07 1.2047e-37
7.1006e-07 4.4998e-38
7.1125e-07 1.3006e-38
7.1244e-07 2.6739e-39
7.1363e-07 2.828e-40
7.1482e-07 -0
7.1602e-07 -0
7.1721e-07 -0
7.1841e-07 -0
7.1961e-07 -0
7.2082e-07 -0
7.2202e-07 -0
7.2323e-07 -0
7.2444e-07 -0
7.2565e-07 -0
7.2686e-07 -0
7.2808e-07 -0
7.293e-07 -0
7.3052e-07 -0
7.3174e-07 -0
7.3296e-07 -0
7.3419e-07 -0
7.3541e-07 -0
7.3664e-07 1.5041e-43
7.3788e-07 4.4852e-42
7.3911e-07 3.0857e-41
7.4035e-07 1.2422e-40
7.4158e-07 3.6984e-40
7.4282e-07 9.1462e-40
7.4407e-07 1.9029e-39
7.4531e-07 3.5175e-39
7.4656e-07 1.1384e-35
7.478e-07 3.4651e-34
7.4905e-07 1.6195e-33
7.5031e-07 3.7532e-33
7.5156e-07 6.3966e-33
7.5282e-07 9.9494e-33
7.5408e-07 1.4851e-32
7.5534e-07 2.2951e-32
7.566e-07 4.1408e-32
7.5787e-07 9.7395e-31
7.5913e-07 6.869e-30
7.604e-07 1.6922e-29
7.6167e-07 1.7935e-29
7.6295e-07 1.4581e-29
7.6422e-07 1.2167e-29
7.655e-07 8.0071e-30
7.6678e-07 4.3236e-30
7.6806e-07 2.1071e-30
7.6935e-07 9.9751e-31
7.7063e-07 4.5451e-31
7.7192e-07 2.0415e-31
7.7321e-07 1.0933e-31
7.7451e-07 5.5669e-32
7.758e-07 2.1669e-32
7.771e-07 7.6432e-33
7.784e-07 2.1605e-33
7.797e-07 3.0843e-34
7.81e-07 2.1604e-35
7.8231e-07 6.335e-36
7.8362e-07 2.4097e-36
7.8493e-07 1.1003e-36
7.8624e-07 4.6048e-37
7.8755e-07 1.5384e-37
7.8887e-07 4.1964e-38
7.9019e-07 8.5365e-39
7.9151e-07 1.1293e-39
7.9283e-07 3.0918e-41
7.9416e-07 -0
7.9549e-07 -0
7.9682e-07 -0
7.9815e-07 -0
7.9949e-07 -0
8.0082e-07 -0
8.0216e-07 -0
8.035e-07 -0
8.0485e-07 -0
8.0619e-07 -0
8.0754e-07 -0
8.0889e-07 -0
8.1024e-07 -0
8.116e-07 -0
8.1295e-07 -0
8.1431e-07 -0
8.1568e-07 -0
8.1704e-07 -0
8.1841e-07 -0
8.1977e-07 -0
8.2114e-07 -0
8.2252e-07 -0
8.2389e-07 -0
8.2527e-07 -0
8.2665e-07 -0
8.2803e-07 -0
8.2942e-07 -0
8.308e-07 -0
8.3219e-07 -0
8.3358e-07 -0
8.3498e-07 -0
8.3637e-07 -0
8.3777e-07 -0
8.3917e-07 -0
8.4058e-07 -0
8.4198e-07 -0
8.4339e-07 -0
8.448e-07 1.2267e-39
8.4621e-07 1.89e-38
8.4763e-07 8.4433e-38
8.4904e-07 1.9543e-37
8.5046e-07 3.2785e-37
8.5189e-07 4.9854e-37
8.5331e-07 7.3662e-37
8.5474e-07 1.0584e-36
8.5617e-07 1.6071e-36
8.576e-07 2.797e-36
8.5903e-07 1.5539e-34
8.6047e-07 3.3379e-33
8.6191e-07 7.4244e-33
8.6335e-07 9.6902e-33
8.6479e-07 7.843e-33
8.6624e-07 8.3534e-33
8.6769e-07 6.8215e-33
8.6914e-07 4.2155e-33
8.7059e-07 1.4286e-33
8.7205e-07 1.0182e-34
8.735e-07 1.7363e-36
8.7497e-07 8.7787e-37
8.7643e-07 6.4612e-37
8.7789e-07 4.6708e-37
8.7936e-07 3.1763e-37
8.8083e-07 2.0558e-37
8.823e-07 1.1303e-37
8.8378e-07 4.6263e-38
8.8526e-07 1.338e-38
8.8674e-07 2.2833e-39
8.8822e-07 1.2853e-40
8.8971e-07 -0
8.9119e-07 -0
8.9268e-07 -0
8.9418e-07 -0
8.9567e-07 -0
8.9717e-07 -0
8.9867e-07 -0
9.0017e-07 -0
9.0168e-07 -0
9.0318e-07 -0
9.0469e-07 -0
9.0621e-07 -0
9.0772e-07 -0
9.0924e-07 -0
9.1076e-07 -0
9.1228e-07 -0
9.1381e-07 -0
9.1534e-07 -0
9.1687e-07 -0
9.184e-07 -0
9.1994e-07 -0
9.2147e-07 -0
9.2301e-07 -0
9.2456e-07 -0
9.261e-07 -0
9.2765e-07 -0
9.292e-07 -0
9.3076e-07 -0
9.3231e-07 -0
9.3387e-07 -0
9.3543e-07 -0
9.37e-07 -0
9.3857e-07 -0
9.4013e-07 -0
9.4171e-07 -0
9.4328e-07 -0
9.4486e-07 -0
9.4644e-07 -0
9.4802e-07 -0
9.4961e-07 -0
9.5119e-07 -0
9.5278e-07 -0
9.5438e-07 -0
9.5597e-07 -0
9.5757e-07 -0
9.5917e-07 -0
9.6078e-07 -0
9.6238e-07 -0
9.6399e-07 -0
9.656e-07 -0
9.6722e-07 -0
9.6884e-07 -0
9.7046e-07 -0
9.7208e-07 -0
9.737e-07 -0
9.7533e-07 -0
9.7696e-07 -0
9.786e-07 -0
9.8023e-07 -0
9.8187e-07 -0
9.8351e-07 -0
9.8516e-07 -0
9.868e-07 -0
9.8845e-07 -0
9.9011e-07 -0
9.9176e-07 -0
9.9342e-07 -0
9.9508e-07 -0
9.9675e-07 -0
9.9841e-07 -0
1.0001e-06 -0
1.0018e-06 -0
1.0034e-06 -0
1.0051e-06 -0
1.0068e-06 -0
1.0085e-06 -0
1.0102e-06 -0
1.0118e-06 -0
1.0135e-06 -0
1.0152e-06 -0
1.0169e-06 -0
1.0186e-06 -0
1.0203e-06 -0
1.022e-06 -0
1.0237e-06 -0
1.0255e-06 -0
1.0272e-06 2.7789e-42
1.0289e-06 3.1855e-41
1.0306e-06 2.0868e-40
1.0323e-06 8.5396e-40
1.0341e-06 2.4849e-39
1.0358e-06 5.3992e-39
1.0375e-06 1.0623e-38
1.0393e-06 2.3123e-38
1.041e-06 5.6921e-38
1.0427e-06 1.2835e-37
1.0445e-06 2.5648e-37
1.0462e-06 4.1872e-37
1.048e-06 7.1574e-37
1.0497e-06 3.481e-36
1.0515e-06 2.3074e-35
1.0532e-06 1.0202e-34
1.055e-06 3.5171e-34
1.0568e-06 6.2885e-34
1.0585e-06 1.072e-33
1.0603e-06 2.4611e-33
1.0621e-06 6.8584e-33
1.0639e-06 1.1192e-32
1.0656e-06 1.8462e-32
1.0674e-06 2.0979e-32
1.0692e-06 1.8012e-32
1.071e-06 9.5582e-33
1.0728e-06 5.9345e-33
1.0746e-06 3.029e-33
1.0764e-06 2.1835e-33
1.0782e-06 1.1218e-33
1.08e-06 4.6593e-34
1.0818e-06 5.1512e-34
1.0836e-06 2.4598e-34
1.0854e-06 1.3669e-34
1.0872e-06 2.5236e-35
1.089e-06 1.6253e-35
1.0908e-06 1.4256e-35
1.0927e-06 2.3068e-36
1.0945e-06 4.8117e-36
1.0963e-06 5.1137e-37
1.0982e-06 1.19e-37
1.1e-06 1.7707e-38
