2.8e-07 3.8474e-22
2.8047e-07 3.702e-22
2.8094e-07 3.5185e-22
2.8141e-07 3.3363e-22
2.8188e-07 3.2075e-22
2.8235e-07 3.0903e-22
2.8282e-07 3.0039e-22
2.8329e-07 2.8739e-22
2.8377e-07 2.704e-22
2.8424e-07 2.5723e-22
2.8472e-07 2.4398e-22
2.8519e-07 2.3208e-22
2.8567e-07 2.2264e-22
2.8615e-07 2.1265e-22
2.8663e-07 2.0281e-22
2.8711e-07 1.9157e-22
2.8759e-07 1.7877e-22
2.8807e-07 1.6826e-22
2.8855e-07 1.5968e-22
2.8903e-07 1.512e-22
2.8951e-07 1.4305e-22
2.9e-07 1.3596e-22
2.9048e-07 1.2922e-22
2.9097e-07 1.2134e-22
2.9145e-07 1.1293e-22
2.9194e-07 1.06e-22
2.9243e-07 1.0064e-22
2.9292e-07 9.4861e-23
2.9341e-07 8.843e-23
2.939e-07 8.3042e-23
2.9439e-07 7.859e-23
2.9488e-07 7.3671e-23
2.9538e-07 6.846e-23
2.9587e-07 6.3715e-23
2.9637e-07 5.9799e-23
2.9686e-07 5.6216e-23
2.9736e-07 5.233e-23
2.9785e-07 4.8666e-23
2.9835e-07 4.5726e-23
2.9885e-07 4.2928e-23
2.9935e-07 3.9866e-23
2.9985e-07 3.7144e-23
3.0035e-07 3.486e-23
3.0085e-07 3.2429e-23
3.0136e-07 3.0097e-23
3.0186e-07 2.8293e-23
3.0237e-07 2.6501e-23
3.0287e-07 2.4463e-23
3.0338e-07 2.2783e-23
3.0389e-07 2.1594e-23
3.0439e-07 2.0244e-23
3.049e-07 1.8538e-23
3.0541e-07 1.7112e-23
3.0592e-07 1.6236e-23
3.0643e-07 1.537e-23
3.0695e-07 1.4093e-23
3.0746e-07 1.2867e-23
3.0797e-07 1.2107e-23
3.0849e-07 1.1565e-23
3.0901e-07 1.0796e-23
3.0952e-07 9.7891e-24
3.1004e-07 8.99e-24
3.1056e-07 8.5044e-24
3.1108e-07 8.094e-24
3.116e-07 7.5493e-24
3.1212e-07 6.8217e-24
3.1264e-07 6.2177e-24
3.1316e-07 5.9647e-24
3.1369e-07 5.7363e-24
3.1421e-07 5.1543e-24
3.1474e-07 4.5805e-24
3.1526e-07 4.3797e-24
3.1579e-07 4.1744e-24
3.1632e-07 3.7246e-24
3.1685e-07 3.4199e-24
3.1738e-07 3.3677e-24
3.1791e-07 3.1526e-24
3.1844e-07 2.6659e-24
3.1897e-07 2.3656e-24
3.195e-07 2.4454e-24
3.2004e-07 2.4384e-24
3.2057e-07 2.0379e-24
3.2111e-07 1.6215e-24
3.2165e-07 1.5981e-24
3.2218e-07 1.8163e-24
3.2272e-07 1.7589e-24
3.2326e-07 1.3354e-24
3.238e-07 9.9438e-25
3.2435e-07 1.0354e-24
3.2489e-07 1.2328e-24
3.2543e-07 1.1855e-24
3.2597e-07 8.9704e-25
3.2652e-07 6.6062e-25
3.2707e-07 6.5181e-25
3.2761e-07 8.0689e-25
3.2816e-07 8.4476e-25
3.2871e-07 6.2318e-25
3.2926e-07 3.917e-25
3.2981e-07 3.6374e-25
3.3036e-07 4.7694e-25
3.3091e-07 5.6163e-25
3.3147e-07 4.9586e-25
3.3202e-07 3.2924e-25
3.3258e-07 2.2466e-25
3.3313e-07 2.6236e-25
3.3369e-07 3.4228e-25
3.3425e-07 3.1603e-25
3.3481e-07 2.0648e-25
3.3537e-07 1.2802e-25
3.3593e-07 1.1848e-25
3.3649e-07 1.6652e-25
3.3705e-07 2.2588e-25
3.3761e-07 2.2243e-25
3.3818e-07 1.4955e-25
3.3874e-07 8.826e-26
3.3931e-07 8.0222e-26
3.3988e-07 1.0502e-25
3.4045e-07 1.1471e-25
3.4102e-07 8.292e-26
3.4159e-07 4.7717e-26
3.4216e-07 3.4452e-26
3.4273e-07 3.6231e-26
3.433e-07 5.5121e-26
3.4388e-07 8.0299e-26
3.4445e-07 7.9799e-26
3.4503e-07 5.3847e-26
3.456e-07 3.2794e-26
3.4618e-07 2.4357e-26
3.4676e-07 2.5024e-26
3.4734e-07 2.8649e-26
3.4792e-07 2.3769e-26
3.485e-07 1.4939e-26
3.4909e-07 1.1084e-26
3.4967e-07 1.0652e-26
3.5025e-07 1.0913e-26
3.5084e-07 1.5804e-26
3.5143e-07 2.3386e-26
3.5201e-07 2.2613e-26
3.526e-07 1.5112e-26
3.5319e-07 9.0821e-27
3.5378e-07 5.6079e-27
3.5437e-07 4.3568e-27
3.5497e-07 4.486e-27
3.5556e-07 4.0354e-27
3.5615e-07 3.2306e-27
3.5675e-07 3.1257e-27
3.5735e-07 2.9377e-27
3.5794e-07 2.2446e-27
3.5854e-07 2.1371e-27
3.5914e-07 3.4854e-27
3.5974e-07 4.7858e-27
3.6034e-07 4.2396e-27
3.6095e-07 2.7822e-27
3.6155e-07 1.7471e-27
3.6215e-07 1.2246e-27
3.6276e-07 1.016e-27
3.6337e-07 9.3797e-28
3.6397e-07 9.5251e-28
3.6458e-07 1.0907e-27
3.6519e-07 1.1521e-27
3.658e-07 9.8143e-28
3.6642e-07 7.8178e-28
3.6703e-07 7.175e-28
3.6764e-07 6.9624e-28
3.6826e-07 6.3874e-28
3.6887e-07 6.0119e-28
3.6949e-07 6.5959e-28
3.7011e-07 8.8324e-28
3.7073e-07 1.1261e-27
3.7135e-07 1.1035e-27
3.7197e-07 8.8964e-28
3.7259e-07 7.2855e-28
3.7321e-07 6.7667e-28
3.7384e-07 6.7108e-28
3.7446e-07 6.9178e-28
3.7509e-07 8.3797e-28
3.7571e-07 1.0318e-27
3.7634e-07 1.0281e-27
3.7697e-07 8.7958e-28
3.776e-07 7.5483e-28
3.7823e-07 6.6025e-28
3.7887e-07 5.829e-28
3.795e-07 5.4245e-28
3.8013e-07 5.323e-28
3.8077e-07 5.3436e-28
3.8141e-07 5.3956e-28
3.8204e-07 5.425e-28
3.8268e-07 5.4472e-28
3.8332e-07 5.5199e-28
3.8396e-07 5.6258e-28
3.846e-07 5.6725e-28
3.8525e-07 5.6389e-28
3.8589e-07 5.5886e-28
3.8654e-07 5.8266e-28
3.8718e-07 6.7502e-28
3.8783e-07 7.7329e-28
3.8848e-07 8.2664e-28
3.8913e-07 8.8776e-28
3.8978e-07 9.4931e-28
3.9043e-07 9.7174e-28
3.9108e-07 9.8635e-28
3.9174e-07 1.0314e-27
3.9239e-07 1.0419e-27
3.9305e-07 1.0129e-27
3.9371e-07 1.0532e-27
3.9436e-07 1.148e-27
3.9502e-07 1.1957e-27
3.9568e-07 1.1829e-27
3.9635e-07 1.1626e-27
3.9701e-07 1.1637e-27
3.9767e-07 1.1228e-27
3.9834e-07 1.0812e-27
3.99e-07 1.1369e-27
3.9967e-07 1.1983e-27
4.0034e-07 1.2425e-27
4.0101e-07 1.3199e-27
4.0168e-07 1.406e-27
4.0235e-07 1.4689e-27
4.0302e-07 1.475e-27
4.037e-07 1.4509e-27
4.0437e-07 1.4426e-27
4.0505e-07 1.4622e-27
4.0573e-07 1.5376e-27
4.064e-07 1.7003e-27
4.0708e-07 1.9496e-27
4.0776e-07 2.2272e-27
4.0845e-07 2.4583e-27
4.0913e-07 2.6215e-27
4.0981e-07 2.7182e-27
4.105e-07 2.7523e-27
4.1118e-07 2.7405e-27
4.1187e-07 2.6753e-27
4.1256e-07 2.5542e-27
4.1325e-07 2.4653e-27
4.1394e-07 2.5194e-27
4.1463e-07 2.7246e-27
4.1533e-07 3.0127e-27
4.1602e-07 3.3051e-27
4.1672e-07 3.554e-27
4.1741e-07 3.7252e-27
4.1811e-07 3.7827e-27
4.1881e-07 3.7413e-27
4.1951e-07 3.721e-27
4.2021e-07 3.8102e-27
4.2092e-07 4.0577e-27
4.2162e-07 4.4806e-27
4.2232e-07 5.036e-27
4.2303e-07 5.6596e-27
4.2374e-07 6.2892e-27
4.2445e-07 6.8668e-27
4.2516e-07 7.2871e-27
4.2587e-07 7.4484e-27
4.2658e-07 7.3736e-27
4.2729e-07 7.1477e-27
4.2801e-07 6.8489e-27
4.2872e-07 6.5999e-27
4.2944e-07 6.5277e-27
4.3016e-07 6.7255e-27
4.3088e-07 7.2075e-27
4.316e-07 7.8628e-27
4.3232e-07 8.4904e-27
4.3304e-07 8.9356e-27
4.3377e-07 9.1206e-27
4.3449e-07 9.0953e-27
4.3522e-07 9.0365e-27
4.3595e-07 9.1044e-27
4.3667e-07 9.4208e-27
4.374e-07 1.0076e-26
4.3814e-07 1.1124e-26
4.3887e-07 1.2477e-26
4.396e-07 1.3933e-26
4.4034e-07 1.5392e-26
4.4107e-07 1.6781e-26
4.4181e-07 1.8084e-26
4.4255e-07 1.8946e-26
4.4329e-07 1.9088e-26
4.4403e-07 1.8585e-26
4.4477e-07 1.778e-26
4.4552e-07 1.6805e-26
4.4626e-07 1.6039e-26
4.4701e-07 1.5799e-26
4.4776e-07 1.6258e-26
4.485e-07 1.7272e-26
4.4925e-07 1.8537e-26
4.5001e-07 1.9739e-26
4.5076e-07 2.0514e-26
4.5151e-07 2.0748e-26
4.5227e-07 2.0663e-26
4.5302e-07 2.0473e-26
4.5378e-07 2.0498e-26
4.5454e-07 2.1199e-26
4.553e-07 2.2479e-26
4.5606e-07 2.4133e-26
4.5682e-07 2.6438e-26
4.5759e-07 2.9358e-26
4.5835e-07 3.246e-26
4.5912e-07 3.5539e-26
4.5989e-07 3.8458e-26
4.6065e-07 4.0797e-26
4.6142e-07 4.208e-26
4.622e-07 4.2181e-26
4.6297e-07 4.1195e-26
4.6374e-07 3.9376e-26
4.6452e-07 3.73e-26
4.653e-07 3.5681e-26
4.6607e-07 3.512e-26
4.6685e-07 3.5866e-26
4.6763e-07 3.7551e-26
4.6842e-07 3.9723e-26
4.692e-07 4.1876e-26
4.6998e-07 4.3368e-26
4.7077e-07 4.3917e-26
4.7156e-07 4.3901e-26
4.7234e-07 4.3849e-26
4.7313e-07 4.4157e-26
4.7393e-07 4.5109e-26
4.7472e-07 4.701e-26
4.7551e-07 4.9893e-26
4.7631e-07 5.3832e-26
4.771e-07 5.8554e-26
4.779e-07 6.3825e-26
4.787e-07 6.9446e-26
4.795e-07 7.5146e-26
4.803e-07 8.0423e-26
4.8111e-07 8.4676e-26
4.8191e-07 8.729e-26
4.8272e-07 8.795e-26
4.8352e-07 8.6967e-26
4.8433e-07 8.5019e-26
4.8514e-07 8.2395e-26
4.8595e-07 7.9736e-26
4.8676e-07 7.7882e-26
4.8758e-07 7.7598e-26
4.8839e-07 7.8932e-26
4.8921e-07 8.1212e-26
4.9003e-07 8.3682e-26
4.9085e-07 8.5909e-26
4.9167e-07 8.758e-26
4.9249e-07 8.8595e-26
4.9331e-07 8.9268e-26
4.9414e-07 8.9974e-26
4.9496e-07 9.1183e-26
4.9579e-07 9.334e-26
4.9662e-07 9.6738e-26
4.9745e-07 1.0149e-25
4.9828e-07 1.0765e-25
4.9912e-07 1.1509e-25
4.9995e-07 1.2342e-25
5.0079e-07 1.3269e-25
5.0162e-07 1.4253e-25
5.0246e-07 1.5229e-25
5.033e-07 1.6239e-25
5.0415e-07 1.6967e-25
5.0499e-07 1.7215e-25
5.0583e-07 1.7324e-25
5.0668e-07 1.7296e-25
5.0753e-07 1.7115e-25
5.0837e-07 1.6784e-25
5.0922e-07 1.6441e-25
5.1008e-07 1.6151e-25
5.1093e-07 1.5969e-25
5.1178e-07 1.5961e-25
5.1264e-07 1.6102e-25
5.135e-07 1.6333e-25
5.1435e-07 1.6631e-25
5.1521e-07 1.6945e-25
5.1608e-07 1.7244e-25
5.1694e-07 1.7518e-25
5.178e-07 1.7786e-25
5.1867e-07 1.8069e-25
5.1954e-07 1.8381e-25
5.204e-07 1.8752e-25
5.2127e-07 1.921e-25
5.2215e-07 1.9783e-25
5.2302e-07 2.0493e-25
5.2389e-07 2.1326e-25
5.2477e-07 2.2186e-25
5.2565e-07 2.3039e-25
5.2653e-07 2.3937e-25
5.2741e-07 2.4857e-25
5.2829e-07 2.5741e-25
5.2917e-07 2.659e-25
5.3006e-07 2.7374e-25
5.3094e-07 2.8012e-25
5.3183e-07 2.8521e-25
5.3272e-07 2.8872e-25
5.3361e-07 2.9078e-25
5.345e-07 2.9148e-25
5.354e-07 2.9138e-25
5.3629e-07 2.9108e-25
5.3719e-07 2.9134e-25
5.3809e-07 2.929e-25
5.3899e-07 2.9585e-25
5.3989e-07 3.0125e-25
5.4079e-07 3.0839e-25
5.4169e-07 3.1454e-25
5.426e-07 3.196e-25
5.4351e-07 3.2485e-25
5.4442e-07 3.2966e-25
5.4533e-07 3.3452e-25
5.4624e-07 3.3828e-25
5.4715e-07 3.4023e-25
5.4807e-07 3.417e-25
5.4898e-07 3.4365e-25
5.499e-07 3.4595e-25
5.5082e-07 3.4821e-25
5.5174e-07 3.5055e-25
5.5266e-07 3.5341e-25
5.5359e-07 3.5698e-25
5.5451e-07 3.6115e-25
5.5544e-07 3.6615e-25
5.5637e-07 3.7213e-25
5.573e-07 3.7929e-25
5.5823e-07 3.8753e-25
5.5917e-07 3.9664e-25
5.601e-07 4.0629e-25
5.6104e-07 4.1611e-25
5.6198e-07 4.2551e-25
5.6291e-07 4.342e-25
5.6386e-07 4.4196e-25
5.648e-07 4.4895e-25
5.6574e-07 4.5565e-25
5.6669e-07 4.6269e-25
5.6764e-07 4.7166e-25
5.6859e-07 4.8199e-25
5.6954e-07 4.8883e-25
5.7049e-07 4.9187e-25
5.7144e-07 4.9554e-25
5.724e-07 5.0078e-25
5.7336e-07 5.0356e-25
5.7431e-07 5.0484e-25
5.7527e-07 5.037e-25
5.7624e-07 5.0078e-25
5.772e-07 4.9664e-25
5.7816e-07 4.9125e-25
5.7913e-07 4.8568e-25
5.801e-07 4.8044e-25
5.8107e-07 4.7543e-25
5.8204e-07 4.712e-25
5.8301e-07 4.6774e-25
5.8399e-07 4.6502e-25
5.8497e-07 4.6343e-25
5.8594e-07 4.6412e-25
5.8692e-07 4.6875e-25
5.8791e-07 4.7922e-25
5.8889e-07 4.8915e-25
5.8987e-07 4.9488e-25
5.9086e-07 4.9651e-25
5.9185e-07 4.9921e-25
5.9284e-07 5.0208e-25
5.9383e-07 5.0995e-25
5.9482e-07 5.2104e-25
5.9582e-07 5.2729e-25
5.9681e-07 5.3356e-25
5.9781e-07 5.4129e-25
5.9881e-07 5.4569e-25
5.9981e-07 5.4717e-25
6.0081e-07 5.4792e-25
6.0182e-07 5.4679e-25
6.0282e-07 5.4403e-25
6.0383e-07 5.3997e-25
6.0484e-07 5.3473e-25
6.0585e-07 5.2812e-25
6.0687e-07 5.2038e-25
6.0788e-07 5.1189e-25
6.089e-07 5.028e-25
6.0992e-07 4.9389e-25
6.1094e-07 4.8599e-25
6.1196e-07 4.7891e-25
6.1298e-07 4.7192e-25
6.14e-07 4.6479e-25
6.1503e-07 4.5778e-25
6.1606e-07 4.5101e-25
6.1709e-07 4.4453e-25
6.1812e-07 4.3838e-25
6.1916e-07 4.3266e-25
6.2019e-07 4.2731e-25
6.2123e-07 4.2221e-25
6.2227e-07 4.1734e-25
6.2331e-07 4.1263e-25
6.2435e-07 4.082e-25
6.2539e-07 4.0476e-25
6.2644e-07 4.0362e-25
6.2749e-07 4.0324e-25
6.2854e-07 4.0105e-25
6.2959e-07 3.9166e-25
6.3064e-07 3.8297e-25
6.3169e-07 3.7742e-25
6.3275e-07 3.71e-25
6.3381e-07 3.6317e-25
6.3487e-07 3.5607e-25
6.3593e-07 3.4939e-25
6.3699e-07 3.4265e-25
6.3806e-07 3.357e-25
6.3912e-07 3.2886e-25
6.4019e-07 3.2202e-25
6.4126e-07 3.1547e-25
6.4234e-07 3.0917e-25
6.4341e-07 3.0423e-25
6.4449e-07 3.0169e-25
6.4556e-07 3.0071e-25
6.4664e-07 3.007e-25
6.4772e-07 3.0107e-25
6.4881e-07 2.9414e-25
6.4989e-07 2.8432e-25
6.5098e-07 2.8013e-25
6.5207e-07 2.7609e-25
6.5316e-07 2.6992e-25
6.5425e-07 2.6382e-25
6.5534e-07 2.6099e-25
6.5644e-07 2.557e-25
6.5754e-07 2.4882e-25
6.5864e-07 2.4208e-25
6.5974e-07 2.354e-25
6.6084e-07 2.2902e-25
6.6195e-07 2.2304e-25
6.6305e-07 2.1821e-25
6.6416e-07 2.1316e-25
6.6527e-07 2.0802e-25
6.6638e-07 2.0251e-25
6.675e-07 1.9715e-25
6.6861e-07 1.9185e-25
6.6973e-07 1.8675e-25
6.7085e-07 1.8182e-25
6.7197e-07 1.7724e-25
6.731e-07 1.7291e-25
6.7422e-07 1.6884e-25
6.7535e-07 1.6498e-25
6.7648e-07 1.6131e-25
6.7761e-07 1.5783e-25
6.7874e-07 1.5465e-25
6.7988e-07 1.5176e-25
6.8101e-07 1.4947e-25
6.8215e-07 1.4759e-25
6.8329e-07 1.4583e-25
6.8444e-07 1.4398e-25
6.8558e-07 1.4404e-25
6.8673e-07 1.4779e-25
6.8788e-07 1.501e-25
6.8903e-07 1.4572e-25
6.9018e-07 1.4004e-25
6.9133e-07 1.3545e-25
6.9249e-07 1.3325e-25
6.9365e-07 1.325e-25
6.9481e-07 1.2933e-25
6.9597e-07 1.2334e-25
6.9713e-07 1.1706e-25
6.983e-07 1.147e-25
6.9946e-07 1.1452e-25
7.0063e-07 1.1367e-25
7.0181e-07 1.1032e-25
7.0298e-07 1.067e-25
7.0415e-07 1.0382e-25
7.0533e-07 1.0278e-25
7.0651e-07 1.0092e-25
7.0769e-07 9.8643e-26
7.0888e-07 9.6395e-26
7.1006e-07 9.4807e-26
7.1125e-07 9.3407e-26
7.1244e-07 9.2483e-26
7.1363e-07 9.2566e-26
7.1482e-07 9.4474e-26
7.1602e-07 9.8593e-26
7.1721e-07 1.0472e-25
7.1841e-07 1.0669e-25
7.1961e-07 1.0301e-25
7.2082e-07 9.575e-26
7.2202e-07 8.9129e-26
7.2323e-07 8.8146e-26
7.2444e-07 8.9061e-26
7.2565e-07 8.7779e-26
7.2686e-07 8.5872e-26
7.2808e-07 8.3287e-26
7.293e-07 8.1582e-26
7.3052e-07 7.9269e-26
7.3174e-07 7.5627e-26
7.3296e-07 7.0641e-26
7.3419e-07 6.7711e-26
7.3541e-07 6.7723e-26
7.3664e-07 6.7119e-26
7.3788e-07 6.5442e-26
7.3911e-07 6.3572e-26
7.4035e-07 6.2285e-26
7.4158e-07 6.1482e-26
7.4282e-07 6.079e-26
7.4407e-07 6.0289e-26
7.4531e-07 6.0397e-26
7.4656e-07 6.0388e-26
7.478e-07 5.9761e-26
7.4905e-07 5.845e-26
7.5031e-07 5.6337e-26
7.5156e-07 5.3637e-26
7.5282e-07 5.0776e-26
7.5408e-07 4.836e-26
7.5534e-07 4.6516e-26
7.566e-07 4.5347e-26
7.5787e-07 4.5508e-26
7.5913e-07 4.7666e-26
7.604e-07 5.2532e-26
7.6167e-07 5.4911e-26
7.6295e-07 5.4014e-26
7.6422e-07 5.2502e-26
7.655e-07 4.9729e-26
7.6678e-07 4.6818e-26
7.6806e-07 4.4263e-26
7.6935e-07 4.267e-26
7.7063e-07 4.1777e-26
7.7192e-07 4.1513e-26
7.7321e-07 4.2071e-26
7.7451e-07 4.3064e-26
7.758e-07 4.4246e-26
7.771e-07 4.5464e-26
7.784e-07 4.6277e-26
7.797e-07 4.633e-26
7.81e-07 4.551e-26
7.8231e-07 4.4128e-26
7.8362e-07 4.2587e-26
7.8493e-07 4.1374e-26
7.8624e-07 4.0653e-26
7.8755e-07 4.0199e-26
7.8887e-07 4.0001e-26
7.9019e-07 3.9074e-26
7.9151e-07 3.7382e-26
7.9283e-07 3.0713e-26
7.9416e-07 1.5713e-26
7.9549e-07 3.4479e-27
7.9682e-07 -0
7.9815e-07 -0
7.9949e-07 -0
8.0082e-07 -0
8.0216e-07 -0
8.035e-07 -0
8.0485e-07 -0
8.0619e-07 -0
8.0754e-07 -0
8.0889e-07 -0
8.1024e-07 -0
8.116e-07 -0
8.1295e-07 -0
8.1431e-07 -0
8.1568e-07 -0
8.1704e-07 -0
8.1841e-07 -0
8.1977e-07 -0
8.2114e-07 -0
8.2252e-07 -0
8.2389e-07 -0
8.2527e-07 -0
8.2665e-07 -0
8.2803e-07 -0
8.2942e-07 -0
8.308e-07 -0
8.3219e-07 -0
8.3358e-07 -0
8.3498e-07 -0
8.3637e-07 -0
8.3777e-07 -0
8.3917e-07 -0
8.4058e-07 -0
8.4198e-07 -0
8.4339e-07 -0
8.448e-07 -0
8.4621e-07 -0
8.4763e-07 -0
8.4904e-07 -0
8.5046e-07 -0
8.5189e-07 -0
8.5331e-07 -0
8.5474e-07 -0
8.5617e-07 -0
8.576e-07 -0
8.5903e-07 -0
8.6047e-07 -0
8.6191e-07 -0
8.6335e-07 -0
8.6479e-07 -0
8.6624e-07 -0
8.6769e-07 -0
8.6914e-07 -0
8.7059e-07 -0
8.7205e-07 -0
8.735e-07 -0
8.7497e-07 -0
8.7643e-07 -0
8.7789e-07 -0
8.7936e-07 -0
8.8083e-07 -0
8.823e-07 -0
8.8378e-07 -0
8.8526e-07 -0
8.8674e-07 -0
8.8822e-07 -0
8.8971e-07 -0
8.9119e-07 -0
8.9268e-07 -0
8.9418e-07 -0
8.9567e-07 -0
8.9717e-07 -0
8.9867e-07 -0
9.0017e-07 -0
9.0168e-07 -0
9.0318e-07 -0
9.0469e-07 -0
9.0621e-07 -0
9.0772e-07 -0
9.0924e-07 -0
9.1076e-07 -0
9.1228e-07 -0
9.1381e-07 -0
9.1534e-07 -0
9.1687e-07 -0
9.184e-07 -0
9.1994e-07 -0
9.2147e-07 -0
9.2301e-07 -0
9.2456e-07 -0
9.261e-07 -0
9.2765e-07 -0
9.292e-07 -0
9.3076e-07 -0
9.3231e-07 -0
9.3387e-07 -0
9.3543e-07 -0
9.37e-07 -0
9.3857e-07 -0
9.4013e-07 -0
9.4171e-07 -0
9.4328e-07 -0
9.4486e-07 -0
9.4644e-07 -0
9.4802e-07 -0
9.4961e-07 -0
9.5119e-07 -0
9.5278e-07 -0
9.5438e-07 -0
9.5597e-07 -0
9.5757e-07 -0
9.5917e-07 -0
9.6078e-07 -0
9.6238e-07 -0
9.6399e-07 -0
9.656e-07 -0
9.6722e-07 -0
9.6884e-07 -0
9.7046e-07 -0
9.7208e-07 -0
9.737e-07 -0
9.7533e-07 -0
9.7696e-07 -0
9.786e-07 -0
9.8023e-07 -0
9.8187e-07 -0
9.8351e-07 -0
9.8516e-07 -0
9.868e-07 -0
9.8845e-07 -0
9.9011e-07 -0
9.9176e-07 -0
9.9342e-07 -0
9.9508e-07 -0
9.9675e-07 -0
9.9841e-07 -0
1.0001e-06 -0
1.0018e-06 -0
1.0034e-06 -0
1.0051e-06 -0
1.0068e-06 -0
1.0085e-06 -0
1.0102e-06 -0
1.0118e-06 -0
1.0135e-06 -0
1.0152e-06 -0
1.0169e-06 -0
1.0186e-06 -0
1.0203e-06 -0
1.022e-06 -0
1.0237e-06 -0
1.0255e-06 -0
1.0272e-06 -0
1.0289e-06 -0
1.0306e-06 -0
1.0323e-06 -0
1.0341e-06 -0
1.0358e-06 -0
1.0375e-06 -0
1.0393e-06 -0
1.041e-06 -0
1.0427e-06 -0
1.0445e-06 -0
1.0462e-06 -0
1.048e-06 -0
1.0497e-06 -0
1.0515e-06 -0
1.0532e-06 -0
1.055e-06 -0
1.0568e-06 -0
1.0585e-06 -0
1.0603e-06 -0
1.0621e-06 -0
1.0639e-06 -0
1.0656e-06 -0
1.0674e-06 -0
1.0692e-06 -0
1.071e-06 -0
1.0728e-06 -0
1.0746e-06 -0
1.0764e-06 -0
1.0782e-06 -0
1.08e-06 -0
1.0818e-06 -0
1.0836e-06 -0
1.0854e-06 -0
1.0872e-06 -0
1.089e-06 -0
1.0908e-06 -0
1.0927e-06 -0
1.0945e-06 -0
1.0963e-06 -0
1.0982e-06 -0
1.1e-06 -0
