2.8e-07 3.8293e-22
2.8023e-07 3.7219e-22
2.8047e-07 3.6539e-22
2.807e-07 3.6141e-22
2.8094e-07 3.5501e-22
2.8117e-07 3.4067e-22
2.814e-07 3.2892e-22
2.8164e-07 3.2133e-22
2.8187e-07 3.1677e-22
2.8211e-07 3.1292e-22
2.8234e-07 3.0554e-22
2.8258e-07 2.985e-22
2.8282e-07 2.9432e-22
2.8305e-07 2.9265e-22
2.8329e-07 2.9014e-22
2.8352e-07 2.7803e-22
2.8376e-07 2.6589e-22
2.84e-07 2.5832e-22
2.8423e-07 2.5342e-22
2.8447e-07 2.4921e-22
2.8471e-07 2.4383e-22
2.8495e-07 2.3526e-22
2.8518e-07 2.2716e-22
2.8542e-07 2.2219e-22
2.8566e-07 2.1922e-22
2.859e-07 2.1567e-22
2.8614e-07 2.1032e-22
2.8638e-07 2.0431e-22
2.8661e-07 1.9916e-22
2.8685e-07 1.9527e-22
2.8709e-07 1.9121e-22
2.8733e-07 1.8431e-22
2.8757e-07 1.7641e-22
2.8781e-07 1.6979e-22
2.8805e-07 1.6464e-22
2.8829e-07 1.608e-22
2.8853e-07 1.5723e-22
2.8877e-07 1.5318e-22
2.8901e-07 1.4901e-22
2.8926e-07 1.4458e-22
2.895e-07 1.4016e-22
2.8974e-07 1.3655e-22
2.8998e-07 1.3343e-22
2.9022e-07 1.3043e-22
2.9046e-07 1.275e-22
2.9071e-07 1.2417e-22
2.9095e-07 1.2016e-22
2.9119e-07 1.1563e-22
2.9143e-07 1.1081e-22
2.9168e-07 1.0669e-22
2.9192e-07 1.0338e-22
2.9216e-07 1.0074e-22
2.9241e-07 9.8772e-23
2.9265e-07 9.6791e-23
2.929e-07 9.3833e-23
2.9314e-07 9.0197e-23
2.9339e-07 8.6516e-23
2.9363e-07 8.3288e-23
2.9388e-07 8.0899e-23
2.9412e-07 7.9109e-23
2.9437e-07 7.7296e-23
2.9461e-07 7.5169e-23
2.9486e-07 7.2652e-23
2.951e-07 6.9655e-23
2.9535e-07 6.6691e-23
2.956e-07 6.4355e-23
2.9584e-07 6.2319e-23
2.9609e-07 6.0077e-23
2.9634e-07 5.8124e-23
2.9658e-07 5.681e-23
2.9683e-07 5.5361e-23
2.9708e-07 5.3227e-23
2.9733e-07 5.1033e-23
2.9757e-07 4.9044e-23
2.9782e-07 4.7277e-23
2.9807e-07 4.5809e-23
2.9832e-07 4.4515e-23
2.9857e-07 4.3321e-23
2.9882e-07 4.2136e-23
2.9907e-07 4.0614e-23
2.9932e-07 3.8785e-23
2.9957e-07 3.7125e-23
2.9982e-07 3.5928e-23
3.0007e-07 3.5009e-23
3.0032e-07 3.4079e-23
3.0057e-07 3.301e-23
3.0082e-07 3.1662e-23
3.0107e-07 3.0174e-23
3.0132e-07 2.8923e-23
3.0157e-07 2.8081e-23
3.0182e-07 2.7502e-23
3.0207e-07 2.6861e-23
3.0233e-07 2.5948e-23
3.0258e-07 2.4807e-23
3.0283e-07 2.3605e-23
3.0308e-07 2.2581e-23
3.0334e-07 2.1838e-23
3.0359e-07 2.1348e-23
3.0384e-07 2.1026e-23
3.041e-07 2.061e-23
3.0435e-07 1.9895e-23
3.046e-07 1.8955e-23
3.0486e-07 1.7924e-23
3.0511e-07 1.6981e-23
3.0537e-07 1.6301e-23
3.0562e-07 1.5924e-23
3.0588e-07 1.5694e-23
3.0613e-07 1.5468e-23
3.0639e-07 1.5107e-23
3.0664e-07 1.4497e-23
3.069e-07 1.3704e-23
3.0715e-07 1.286e-23
3.0741e-07 1.2161e-23
3.0767e-07 1.1771e-23
3.0792e-07 1.1649e-23
3.0818e-07 1.1502e-23
3.0844e-07 1.1206e-23
3.087e-07 1.0936e-23
3.0895e-07 1.0654e-23
3.0921e-07 1.0132e-23
3.0947e-07 9.3798e-24
3.0973e-07 8.7508e-24
3.0998e-07 8.4871e-24
3.1024e-07 8.399e-24
3.105e-07 8.2044e-24
3.1076e-07 7.9341e-24
3.1102e-07 7.7496e-24
3.1128e-07 7.6669e-24
3.1154e-07 7.4613e-24
3.118e-07 7.0034e-24
3.1206e-07 6.5143e-24
3.1232e-07 6.141e-24
3.1258e-07 5.8413e-24
3.1284e-07 5.6334e-24
3.131e-07 5.5881e-24
3.1336e-07 5.7086e-24
3.1362e-07 5.7538e-24
3.1389e-07 5.482e-24
3.1415e-07 5.003e-24
3.1441e-07 4.4973e-24
3.1467e-07 4.1504e-24
3.1494e-07 4.0441e-24
3.152e-07 4.1233e-24
3.1546e-07 4.2814e-24
3.1572e-07 4.2279e-24
3.1599e-07 3.8658e-24
3.1625e-07 3.4799e-24
3.1651e-07 3.2068e-24
3.1678e-07 3.1012e-24
3.1704e-07 3.1554e-24
3.1731e-07 3.2533e-24
3.1757e-07 3.3155e-24
3.1784e-07 3.2196e-24
3.181e-07 2.8967e-24
3.1837e-07 2.5069e-24
3.1863e-07 2.1998e-24
3.189e-07 2.0234e-24
3.1917e-07 2.0588e-24
3.1943e-07 2.2926e-24
3.197e-07 2.4987e-24
3.1996e-07 2.537e-24
3.2023e-07 2.3564e-24
3.205e-07 2.0042e-24
3.2077e-07 1.6499e-24
3.2103e-07 1.3932e-24
3.213e-07 1.2837e-24
3.2157e-07 1.3235e-24
3.2184e-07 1.5457e-24
3.2211e-07 1.8209e-24
3.2238e-07 1.9108e-24
3.2264e-07 1.8596e-24
3.2291e-07 1.6616e-24
3.2318e-07 1.2883e-24
3.2345e-07 9.5184e-25
3.2372e-07 7.67e-25
3.2399e-07 7.4779e-25
3.2426e-07 8.3786e-25
3.2453e-07 1.0102e-24
3.248e-07 1.2546e-24
3.2507e-07 1.342e-24
3.2535e-07 1.2238e-24
3.2562e-07 1.0738e-24
3.2589e-07 8.7559e-25
3.2616e-07 6.6145e-25
3.2643e-07 5.1696e-25
3.2671e-07 4.6207e-25
3.2698e-07 5.184e-25
3.2725e-07 6.2563e-25
3.2752e-07 7.2468e-25
3.278e-07 8.8343e-25
3.2807e-07 9.811e-25
3.2834e-07 8.3105e-25
3.2862e-07 5.8178e-25
3.2889e-07 4.003e-25
3.2917e-07 2.9626e-25
3.2944e-07 2.539e-25
3.2972e-07 2.5272e-25
3.2999e-07 3.0692e-25
3.3027e-07 4.2702e-25
3.3054e-07 5.1696e-25
3.3082e-07 5.5469e-25
3.3109e-07 5.9776e-25
3.3137e-07 5.5574e-25
3.3165e-07 4.1428e-25
3.3192e-07 2.8431e-25
3.322e-07 2.0204e-25
3.3248e-07 1.606e-25
3.3275e-07 1.6067e-25
3.3303e-07 1.8697e-25
3.3331e-07 2.4215e-25
3.3359e-07 3.4457e-25
3.3387e-07 4.0492e-25
3.3414e-07 3.442e-25
3.3442e-07 2.467e-25
3.347e-07 1.7971e-25
3.3498e-07 1.3241e-25
3.3526e-07 9.8505e-26
3.3554e-07 8.0733e-26
3.3582e-07 7.6097e-26
3.361e-07 9.2659e-26
3.3638e-07 1.3068e-25
3.3666e-07 1.6295e-25
3.3694e-07 2.0573e-25
3.3722e-07 2.6446e-25
3.375e-07 2.6498e-25
3.3779e-07 2.0199e-25
3.3807e-07 1.3599e-25
3.3835e-07 9.1609e-26
3.3863e-07 6.5562e-26
3.3891e-07 5.3461e-26
3.392e-07 5.2092e-26
3.3948e-07 5.781e-26
3.3976e-07 7.8158e-26
3.4005e-07 1.1471e-25
3.4033e-07 1.3358e-25
3.4061e-07 1.1246e-25
3.409e-07 7.7572e-26
3.4118e-07 5.216e-26
3.4147e-07 3.6501e-26
3.4175e-07 2.8286e-26
3.4204e-07 2.4297e-26
3.4232e-07 2.1354e-26
3.4261e-07 2.0616e-26
3.4289e-07 2.5951e-26
3.4318e-07 3.5232e-26
3.4347e-07 4.6682e-26
3.4375e-07 7.0719e-26
3.4404e-07 9.892e-26
3.4433e-07 9.7187e-26
3.4461e-07 6.9927e-26
3.449e-07 4.6429e-26
3.4519e-07 3.2486e-26
3.4548e-07 2.4813e-26
3.4577e-07 2.0169e-26
3.4605e-07 1.6257e-26
3.4634e-07 1.3513e-26
3.4663e-07 1.3602e-26
3.4692e-07 1.9727e-26
3.4721e-07 2.9301e-26
3.475e-07 3.132e-26
3.4779e-07 2.4027e-26
3.4808e-07 1.6085e-26
3.4837e-07 1.106e-26
3.4866e-07 8.2399e-27
3.4895e-07 6.6137e-27
3.4924e-07 6.1334e-27
3.4953e-07 6.4333e-27
3.4983e-07 6.3749e-27
3.5012e-07 6.136e-27
3.5041e-07 6.332e-27
3.507e-07 7.4097e-27
3.5099e-07 1.2668e-26
3.5129e-07 2.3287e-26
3.5158e-07 2.9741e-26
3.5187e-07 2.5661e-26
3.5217e-07 1.7978e-26
3.5246e-07 1.2407e-26
3.5276e-07 8.8514e-27
3.5305e-07 6.3127e-27
3.5334e-07 4.4749e-27
3.5364e-07 3.1761e-27
3.5393e-07 2.2569e-27
3.5423e-07 1.82e-27
3.5452e-07 2.0918e-27
3.5482e-07 2.9957e-27
3.5512e-07 3.6112e-27
3.5541e-07 3.1569e-27
3.5571e-07 2.1556e-27
3.5601e-07 1.4043e-27
3.563e-07 1.1003e-27
3.566e-07 1.253e-27
3.569e-07 1.4708e-27
3.572e-07 1.3318e-27
3.5749e-07 1.0717e-27
3.5779e-07 8.4652e-28
3.5809e-07 6.0432e-28
3.5839e-07 4.4992e-28
3.5869e-07 5.8412e-28
3.5899e-07 1.5681e-27
3.5929e-07 3.467e-27
3.5959e-07 4.8562e-27
3.5989e-07 4.748e-27
3.6019e-07 3.8057e-27
3.6049e-07 2.7848e-27
3.6079e-07 1.9347e-27
3.6109e-07 1.3333e-27
3.6139e-07 9.1678e-28
3.6169e-07 6.5184e-28
3.6199e-07 5.1739e-28
3.623e-07 4.5852e-28
3.626e-07 3.7978e-28
3.629e-07 2.9875e-28
3.632e-07 3.0065e-28
3.6351e-07 3.4771e-28
3.6381e-07 3.1539e-28
3.6411e-07 2.3166e-28
3.6442e-07 2.619e-28
3.6472e-07 3.8646e-28
3.6502e-07 4.0792e-28
3.6533e-07 3.4087e-28
3.6563e-07 2.7751e-28
3.6594e-07 2.0991e-28
3.6624e-07 1.5517e-28
3.6655e-07 1.2372e-28
3.6686e-07 9.805e-29
3.6716e-07 7.5758e-29
3.6747e-07 6.1496e-29
3.6777e-07 6.1541e-29
3.6808e-07 7.9774e-29
3.6839e-07 1.0834e-28
3.687e-07 1.2407e-28
3.69e-07 1.157e-28
3.6931e-07 9.5418e-29
3.6962e-07 7.5214e-29
3.6993e-07 5.7605e-29
3.7024e-07 4.1113e-29
3.7054e-07 2.6971e-29
3.7085e-07 2.0775e-29
3.7116e-07 2.0329e-29
3.7147e-07 2.0779e-29
3.7178e-07 2.1666e-29
3.7209e-07 2.2964e-29
3.724e-07 2.4726e-29
3.7271e-07 2.684e-29
3.7302e-07 2.9593e-29
3.7334e-07 4.7504e-29
3.7365e-07 7.5999e-29
3.7396e-07 8.7371e-29
3.7427e-07 1.0065e-28
3.7458e-07 9.5451e-29
3.749e-07 8.4082e-28
3.7521e-07 5.8953e-27
3.7552e-07 9.8773e-27
3.7583e-07 7.0883e-27
3.7615e-07 4.0011e-27
3.7646e-07 2.9517e-27
3.7678e-07 1.8961e-27
3.7709e-07 1.6462e-27
3.7741e-07 1.1625e-27
3.7772e-07 6.2169e-28
3.7804e-07 3.3606e-28
3.7835e-07 1.613e-28
3.7867e-07 1.1714e-28
3.7898e-07 8.7168e-29
3.793e-07 7.3298e-29
3.7961e-07 7.8971e-29
3.7993e-07 8.3759e-29
3.8025e-07 8.6987e-29
3.8057e-07 9.0342e-29
3.8088e-07 9.4161e-29
3.812e-07 9.7672e-29
3.8152e-07 1.0003e-28
3.8184e-07 1.0142e-28
3.8216e-07 1.0295e-28
3.8247e-07 1.0439e-28
3.8279e-07 1.0446e-28
3.8311e-07 1.0404e-28
3.8343e-07 1.0291e-28
3.8375e-07 9.8961e-29
3.8407e-07 9.3802e-29
3.8439e-07 8.9109e-29
3.8471e-07 8.4625e-29
3.8503e-07 8.0974e-29
3.8536e-07 7.7983e-29
3.8568e-07 7.5025e-29
3.86e-07 7.2271e-29
3.8632e-07 7.9302e-29
3.8664e-07 1.151e-28
3.8697e-07 1.5847e-28
3.8729e-07 2.4145e-28
3.8761e-07 4.8516e-28
3.8793e-07 7.0174e-28
3.8826e-07 6.1875e-28
3.8858e-07 4.7471e-28
3.8891e-07 7.8432e-28
3.8923e-07 1.277e-27
3.8956e-07 1.2692e-27
3.8988e-07 1.1517e-27
3.9021e-07 1.2947e-27
3.9053e-07 1.2192e-27
3.9086e-07 9.4963e-28
3.9118e-07 8.9839e-28
3.9151e-07 1.0131e-27
3.9184e-07 1.1445e-27
3.9216e-07 1.1331e-27
3.9249e-07 9.2835e-28
3.9282e-07 7.3748e-28
3.9315e-07 6.246e-28
3.9347e-07 5.6051e-28
3.938e-07 6.1421e-28
3.9413e-07 6.5194e-28
3.9446e-07 6.8158e-28
3.9479e-07 6.6267e-28
3.9512e-07 6.1691e-28
3.9545e-07 6.0756e-28
3.9578e-07 5.5685e-28
3.9611e-07 4.9654e-28
3.9644e-07 4.8842e-28
3.9677e-07 4.9725e-28
3.971e-07 5.1059e-28
3.9743e-07 5.1414e-28
3.9776e-07 4.5665e-28
3.9809e-07 3.5681e-28
3.9843e-07 3.214e-28
3.9876e-07 3.9035e-28
3.9909e-07 4.6884e-28
3.9942e-07 4.6786e-28
3.9976e-07 4.202e-28
4.0009e-07 4.0357e-28
4.0042e-07 4.4095e-28
4.0076e-07 4.7971e-28
4.0109e-07 4.9223e-28
4.0143e-07 5.1454e-28
4.0176e-07 5.5681e-28
4.021e-07 5.9635e-28
4.0243e-07 6.1671e-28
4.0277e-07 6.1615e-28
4.031e-07 5.9873e-28
4.0344e-07 5.7645e-28
4.0378e-07 5.6839e-28
4.0411e-07 5.7384e-28
4.0445e-07 5.7427e-28
4.0479e-07 5.6916e-28
4.0513e-07 5.7397e-28
4.0546e-07 5.9917e-28
4.058e-07 6.4371e-28
4.0614e-07 6.9924e-28
4.0648e-07 7.7202e-28
4.0682e-07 8.7874e-28
4.0716e-07 1.0116e-27
4.075e-07 1.1449e-27
4.0784e-07 1.2669e-27
4.0818e-07 1.373e-27
4.0852e-07 1.4572e-27
4.0886e-07 1.5291e-27
4.092e-07 1.6003e-27
4.0954e-07 1.6572e-27
4.0988e-07 1.6842e-27
4.1023e-07 1.6918e-27
4.1057e-07 1.6969e-27
4.1091e-07 1.6985e-27
4.1125e-07 1.6911e-27
4.116e-07 1.6725e-27
4.1194e-07 1.6348e-27
4.1228e-07 1.5703e-27
4.1263e-07 1.4876e-27
4.1297e-07 1.4127e-27
4.1332e-07 1.3736e-27
4.1366e-07 1.3895e-27
4.1401e-07 1.46e-27
4.1435e-07 1.5608e-27
4.147e-07 1.6799e-27
4.1504e-07 1.8232e-27
4.1539e-07 1.9808e-27
4.1574e-07 2.134e-27
4.1608e-07 2.2709e-27
4.1643e-07 2.3934e-27
4.1678e-07 2.5051e-27
4.1712e-07 2.6005e-27
4.1747e-07 2.6762e-27
4.1782e-07 2.7225e-27
4.1817e-07 2.7219e-27
4.1852e-07 2.6746e-27
4.1887e-07 2.6182e-27
4.1922e-07 2.5908e-27
4.1957e-07 2.5964e-27
4.1992e-07 2.6333e-27
4.2027e-07 2.6916e-27
4.2062e-07 2.7784e-27
4.2097e-07 2.9284e-27
4.2132e-07 3.1473e-27
4.2167e-07 3.3996e-27
4.2202e-07 3.6622e-27
4.2238e-07 3.9539e-27
4.2273e-07 4.2875e-27
4.2308e-07 4.6275e-27
4.2343e-07 4.9424e-27
4.2379e-07 5.2511e-27
4.2414e-07 5.5677e-27
4.2449e-07 5.8659e-27
4.2485e-07 6.1208e-27
4.252e-07 6.3229e-27
4.2556e-07 6.4415e-27
4.2591e-07 6.4523e-27
4.2627e-07 6.3945e-27
4.2662e-07 6.3213e-27
4.2698e-07 6.2241e-27
4.2733e-07 6.0725e-27
4.2769e-07 5.8891e-27
4.2805e-07 5.7131e-27
4.2841e-07 5.5652e-27
4.2876e-07 5.4574e-27
4.2912e-07 5.3938e-27
4.2948e-07 5.3776e-27
4.2984e-07 5.438e-27
4.302e-07 5.5875e-27
4.3055e-07 5.8179e-27
4.3091e-07 6.1305e-27
4.3127e-07 6.5058e-27
4.3163e-07 6.8885e-27
4.3199e-07 7.2383e-27
4.3235e-07 7.5481e-27
4.3271e-07 7.8012e-27
4.3307e-07 7.9854e-27
4.3344e-07 8.1142e-27
4.338e-07 8.1668e-27
4.3416e-07 8.1183e-27
4.3452e-07 8.03e-27
4.3488e-07 7.9794e-27
4.3525e-07 7.9661e-27
4.3561e-07 7.9649e-27
4.3597e-07 8.0018e-27
4.3634e-07 8.1243e-27
4.367e-07 8.3399e-27
4.3707e-07 8.6334e-27
4.3743e-07 9.0206e-27
4.3779e-07 9.5125e-27
4.3816e-07 1.0114e-26
4.3853e-07 1.0837e-26
4.3889e-07 1.1629e-26
4.3926e-07 1.2381e-26
4.3962e-07 1.3103e-26
4.3999e-07 1.3847e-26
4.4036e-07 1.458e-26
4.4073e-07 1.5303e-26
4.4109e-07 1.6053e-26
4.4146e-07 1.6735e-26
4.4183e-07 1.7312e-26
4.422e-07 1.7886e-26
4.4257e-07 1.848e-26
4.4294e-07 1.8762e-26
4.4331e-07 1.8551e-26
4.4368e-07 1.819e-26
4.4405e-07 1.7918e-26
4.4442e-07 1.7614e-26
4.4479e-07 1.7184e-26
4.4516e-07 1.6634e-26
4.4553e-07 1.6043e-26
4.459e-07 1.5502e-26
4.4627e-07 1.5041e-26
4.4664e-07 1.4755e-26
4.4702e-07 1.4714e-26
4.4739e-07 1.4897e-26
4.4776e-07 1.528e-26
4.4814e-07 1.5806e-26
4.4851e-07 1.643e-26
4.4889e-07 1.714e-26
4.4926e-07 1.7862e-26
4.4963e-07 1.8543e-26
4.5001e-07 1.9182e-26
4.5038e-07 1.9717e-26
4.5076e-07 2.0072e-26
4.5114e-07 2.0192e-26
4.5151e-07 2.0156e-26
4.5189e-07 2.0102e-26
4.5227e-07 2.0093e-26
4.5264e-07 2.011e-26
4.5302e-07 2.0055e-26
4.534e-07 1.9857e-26
4.5378e-07 1.9739e-26
4.5416e-07 2.0073e-26
4.5454e-07 2.0912e-26
4.5491e-07 2.1959e-26
4.5529e-07 2.2758e-26
4.5567e-07 2.3123e-26
4.5605e-07 2.3515e-26
4.5643e-07 2.4381e-26
4.5682e-07 2.5651e-26
4.572e-07 2.713e-26
4.5758e-07 2.8718e-26
4.5796e-07 3.0331e-26
4.5834e-07 3.1915e-26
4.5872e-07 3.3459e-26
4.5911e-07 3.4988e-26
4.5949e-07 3.653e-26
4.5987e-07 3.8031e-26
4.6026e-07 3.94e-26
4.6064e-07 4.0523e-26
4.6102e-07 4.133e-26
4.6141e-07 4.1804e-26
4.6179e-07 4.194e-26
4.6218e-07 4.1776e-26
4.6256e-07 4.1384e-26
4.6295e-07 4.0746e-26
4.6334e-07 3.9794e-26
4.6372e-07 3.8619e-26
4.6411e-07 3.74e-26
4.645e-07 3.6265e-26
4.6489e-07 3.5255e-26
4.6527e-07 3.4419e-26
4.6566e-07 3.3886e-26
4.6605e-07 3.3773e-26
4.6644e-07 3.4122e-26
4.6683e-07 3.4818e-26
4.6722e-07 3.5761e-26
4.6761e-07 3.679e-26
4.68e-07 3.7923e-26
4.6839e-07 3.9201e-26
4.6878e-07 4.0509e-26
4.6917e-07 4.1712e-26
4.6956e-07 4.2777e-26
4.6995e-07 4.3443e-26
4.7034e-07 4.3628e-26
4.7074e-07 4.3752e-26
4.7113e-07 4.3771e-26
4.7152e-07 4.3581e-26
4.7192e-07 4.3449e-26
4.7231e-07 4.3448e-26
4.727e-07 4.3509e-26
4.731e-07 4.3674e-26
4.7349e-07 4.4051e-26
4.7389e-07 4.4564e-26
4.7428e-07 4.535e-26
4.7468e-07 4.6413e-26
4.7507e-07 4.7739e-26
4.7547e-07 4.9352e-26
4.7587e-07 5.1277e-26
4.7626e-07 5.3436e-26
4.7666e-07 5.577e-26
4.7706e-07 5.8267e-26
4.7746e-07 6.0896e-26
4.7786e-07 6.3627e-26
4.7825e-07 6.6417e-26
4.7865e-07 6.9292e-26
4.7905e-07 7.2257e-26
4.7945e-07 7.5216e-26
4.7985e-07 7.8032e-26
4.8025e-07 8.0646e-26
4.8065e-07 8.3062e-26
4.8105e-07 8.5188e-26
4.8146e-07 8.6825e-26
4.8186e-07 8.7863e-26
4.8226e-07 8.8338e-26
4.8266e-07 8.8308e-26
4.8306e-07 8.7847e-26
4.8347e-07 8.7045e-26
4.8387e-07 8.5948e-26
4.8427e-07 8.4773e-26
4.8468e-07 8.368e-26
4.8508e-07 8.2399e-26
4.8549e-07 8.0774e-26
4.8589e-07 7.8967e-26
4.863e-07 7.7598e-26
4.867e-07 7.6873e-26
4.8711e-07 7.6651e-26
4.8752e-07 7.6779e-26
4.8792e-07 7.7297e-26
4.8833e-07 7.8143e-26
4.8874e-07 7.9418e-26
4.8914e-07 8.0905e-26
4.8955e-07 8.2182e-26
4.8996e-07 8.338e-26
4.9037e-07 8.4678e-26
4.9078e-07 8.5853e-26
4.9119e-07 8.6772e-26
4.916e-07 8.7495e-26
4.9201e-07 8.8049e-26
4.9242e-07 8.8457e-26
4.9283e-07 8.8731e-26
4.9324e-07 8.8948e-26
4.9365e-07 8.918e-26
4.9406e-07 8.9535e-26
4.9448e-07 9.0008e-26
4.9489e-07 9.0594e-26
4.953e-07 9.1428e-26
4.9571e-07 9.2627e-26
4.9613e-07 9.4189e-26
4.9654e-07 9.6084e-26
4.9696e-07 9.8291e-26
4.9737e-07 1.0083e-25
4.9779e-07 1.0378e-25
4.982e-07 1.0717e-25
4.9862e-07 1.1084e-25
4.9903e-07 1.1476e-25
4.9945e-07 1.1892e-25
4.9986e-07 1.233e-25
5.0028e-07 1.2798e-25
5.007e-07 1.327e-25
5.0112e-07 1.3784e-25
5.0154e-07 1.4355e-25
5.0195e-07 1.4859e-25
5.0237e-07 1.5303e-25
5.0279e-07 1.5787e-25
5.0321e-07 1.6371e-25
5.0363e-07 1.7004e-25
5.0405e-07 1.74e-25
5.0447e-07 1.7462e-25
5.0489e-07 1.7381e-25
5.0531e-07 1.7405e-25
5.0573e-07 1.7558e-25
5.0616e-07 1.7549e-25
5.0658e-07 1.747e-25
5.07e-07 1.7472e-25
5.0742e-07 1.7392e-25
5.0785e-07 1.7175e-25
5.0827e-07 1.6948e-25
5.087e-07 1.6729e-25
5.0912e-07 1.6548e-25
5.0954e-07 1.6416e-25
5.0997e-07 1.6246e-25
5.104e-07 1.6094e-25
5.1082e-07 1.6001e-25
5.1125e-07 1.5972e-25
5.1167e-07 1.5976e-25
5.121e-07 1.6037e-25
5.1253e-07 1.6128e-25
5.1296e-07 1.6227e-25
5.1338e-07 1.6352e-25
5.1381e-07 1.6488e-25
5.1424e-07 1.6643e-25
5.1467e-07 1.6809e-25
5.151e-07 1.6971e-25
5.1553e-07 1.7124e-25
5.1596e-07 1.7265e-25
5.1639e-07 1.74e-25
5.1682e-07 1.7531e-25
5.1725e-07 1.7659e-25
5.1768e-07 1.7791e-25
5.1811e-07 1.7928e-25
5.1855e-07 1.8069e-25
5.1898e-07 1.8214e-25
5.1941e-07 1.8371e-25
5.1984e-07 1.8539e-25
5.2028e-07 1.8724e-25
5.2071e-07 1.8932e-25
5.2115e-07 1.9167e-25
5.2158e-07 1.9432e-25
5.2202e-07 1.9728e-25
5.2245e-07 2.0054e-25
5.2289e-07 2.0422e-25
5.2332e-07 2.0841e-25
5.2376e-07 2.1311e-25
5.242e-07 2.1801e-25
5.2464e-07 2.2248e-25
5.2507e-07 2.2645e-25
5.2551e-07 2.3027e-25
5.2595e-07 2.3422e-25
5.2639e-07 2.3907e-25
5.2683e-07 2.4442e-25
5.2727e-07 2.4925e-25
5.2771e-07 2.5337e-25
5.2815e-07 2.5761e-25
5.2859e-07 2.6213e-25
5.2903e-07 2.6642e-25
5.2947e-07 2.7042e-25
5.2991e-07 2.7437e-25
5.3035e-07 2.7799e-25
5.308e-07 2.8108e-25
5.3124e-07 2.8366e-25
5.3168e-07 2.8603e-25
5.3213e-07 2.8815e-25
5.3257e-07 2.8988e-25
5.3301e-07 2.9107e-25
5.3346e-07 2.9183e-25
5.339e-07 2.9232e-25
5.3435e-07 2.9254e-25
5.3479e-07 2.9256e-25
5.3524e-07 2.924e-25
5.3569e-07 2.9209e-25
5.3613e-07 2.9186e-25
5.3658e-07 2.918e-25
5.3703e-07 2.9184e-25
5.3748e-07 2.9223e-25
5.3793e-07 2.9315e-25
5.3837e-07 2.945e-25
5.3882e-07 2.9615e-25
5.3927e-07 2.985e-25
5.3972e-07 3.0157e-25
5.4017e-07 3.0507e-25
5.4062e-07 3.0971e-25
5.4107e-07 3.1469e-25
5.4153e-07 3.1802e-25
5.4198e-07 3.1997e-25
5.4243e-07 3.2142e-25
5.4288e-07 3.2346e-25
5.4334e-07 3.2708e-25
5.4379e-07 3.3062e-25
5.4424e-07 3.3194e-25
5.447e-07 3.337e-25
5.4515e-07 3.3616e-25
5.4561e-07 3.3864e-25
5.4606e-07 3.4191e-25
5.4652e-07 3.4343e-25
5.4697e-07 3.4299e-25
5.4743e-07 3.4256e-25
5.4788e-07 3.4346e-25
5.4834e-07 3.441e-25
5.488e-07 3.4494e-25
5.4926e-07 3.4626e-25
5.4972e-07 3.4768e-25
5.5017e-07 3.4854e-25
5.5063e-07 3.4917e-25
5.5109e-07 3.503e-25
5.5155e-07 3.5121e-25
5.5201e-07 3.5226e-25
5.5247e-07 3.5375e-25
5.5293e-07 3.5536e-25
5.5339e-07 3.5705e-25
5.5386e-07 3.589e-25
5.5432e-07 3.6096e-25
5.5478e-07 3.6329e-25
5.5524e-07 3.6579e-25
5.5571e-07 3.6848e-25
5.5617e-07 3.7147e-25
5.5663e-07 3.7479e-25
5.571e-07 3.7851e-25
5.5756e-07 3.8253e-25
5.5803e-07 3.8678e-25
5.5849e-07 3.9124e-25
5.5896e-07 3.9592e-25
5.5943e-07 4.0077e-25
5.5989e-07 4.0582e-25
5.6036e-07 4.109e-25
5.6083e-07 4.159e-25
5.613e-07 4.2065e-25
5.6176e-07 4.2534e-25
5.6223e-07 4.3012e-25
5.627e-07 4.3456e-25
5.6317e-07 4.384e-25
5.6364e-07 4.4206e-25
5.6411e-07 4.4586e-25
5.6458e-07 4.4938e-25
5.6505e-07 4.5263e-25
5.6552e-07 4.5562e-25
5.66e-07 4.5895e-25
5.6647e-07 4.6268e-25
5.6694e-07 4.6639e-25
5.6741e-07 4.7077e-25
5.6789e-07 4.7683e-25
5.6836e-07 4.8451e-25
5.6883e-07 4.9071e-25
5.6931e-07 4.9409e-25
5.6978e-07 4.9614e-25
5.7026e-07 4.9591e-25
5.7074e-07 4.9422e-25
5.7121e-07 4.9562e-25
5.7169e-07 5.0097e-25
5.7216e-07 5.0558e-25
5.7264e-07 5.0697e-25
5.7312e-07 5.0755e-25
5.736e-07 5.0796e-25
5.7408e-07 5.0954e-25
5.7456e-07 5.1021e-25
5.7503e-07 5.0853e-25
5.7551e-07 5.0745e-25
5.7599e-07 5.0624e-25
5.7647e-07 5.0329e-25
5.7696e-07 5.0179e-25
5.7744e-07 5.0003e-25
5.7792e-07 4.9622e-25
5.784e-07 4.9272e-25
5.7888e-07 4.9022e-25
5.7937e-07 4.8757e-25
5.7985e-07 4.8426e-25
5.8033e-07 4.8153e-25
5.8082e-07 4.792e-25
5.813e-07 4.7683e-25
5.8179e-07 4.7489e-25
5.8227e-07 4.7282e-25
5.8276e-07 4.7102e-25
5.8324e-07 4.6978e-25
5.8373e-07 4.6872e-25
5.8422e-07 4.6759e-25
5.8471e-07 4.6654e-25
5.8519e-07 4.6571e-25
5.8568e-07 4.6594e-25
5.8617e-07 4.6801e-25
5.8666e-07 4.7076e-25
5.8715e-07 4.7388e-25
5.8764e-07 4.7936e-25
5.8813e-07 4.8744e-25
5.8862e-07 4.9662e-25
5.8911e-07 5.0106e-25
5.896e-07 5.0238e-25
5.9009e-07 5.0246e-25
5.9059e-07 5.0124e-25
5.9108e-07 5.0178e-25
5.9157e-07 5.062e-25
5.9206e-07 5.1039e-25
5.9256e-07 5.1017e-25
5.9305e-07 5.0669e-25
5.9355e-07 5.092e-25
5.9404e-07 5.1856e-25
5.9454e-07 5.3091e-25
5.9503e-07 5.3406e-25
5.9553e-07 5.3222e-25
5.9603e-07 5.3405e-25
5.9652e-07 5.3845e-25
5.9702e-07 5.4403e-25
5.9752e-07 5.4745e-25
5.9802e-07 5.4933e-25
5.9852e-07 5.5183e-25
5.9902e-07 5.541e-25
5.9952e-07 5.5513e-25
6.0002e-07 5.5491e-25
6.0052e-07 5.5453e-25
6.0102e-07 5.5345e-25
6.0152e-07 5.5272e-25
6.0202e-07 5.516e-25
6.0252e-07 5.4974e-25
6.0303e-07 5.483e-25
6.0353e-07 5.456e-25
6.0403e-07 5.4266e-25
6.0454e-07 5.4003e-25
6.0504e-07 5.3703e-25
6.0555e-07 5.3359e-25
6.0605e-07 5.2996e-25
6.0656e-07 5.2588e-25
6.0706e-07 5.2167e-25
6.0757e-07 5.1739e-25
6.0808e-07 5.1284e-25
6.0858e-07 5.082e-25
6.0909e-07 5.0349e-25
6.096e-07 4.9873e-25
6.1011e-07 4.9418e-25
6.1062e-07 4.9042e-25
6.1113e-07 4.8784e-25
6.1164e-07 4.8585e-25
6.1215e-07 4.8371e-25
6.1266e-07 4.8123e-25
6.1317e-07 4.7845e-25
6.1368e-07 4.7562e-25
6.1419e-07 4.7278e-25
6.147e-07 4.6986e-25
6.1522e-07 4.6691e-25
6.1573e-07 4.6394e-25
6.1624e-07 4.6098e-25
6.1676e-07 4.5802e-25
6.1727e-07 4.5507e-25
6.1779e-07 4.5223e-25
6.183e-07 4.4954e-25
6.1882e-07 4.4688e-25
6.1933e-07 4.4429e-25
6.1985e-07 4.4184e-25
6.2037e-07 4.3943e-25
6.2089e-07 4.37e-25
6.214e-07 4.3461e-25
6.2192e-07 4.3228e-25
6.2244e-07 4.2999e-25
6.2296e-07 4.2771e-25
6.2348e-07 4.2549e-25
6.24e-07 4.2327e-25
6.2452e-07 4.2138e-25
6.2504e-07 4.1967e-25
6.2556e-07 4.1836e-25
6.2609e-07 4.1775e-25
6.2661e-07 4.1771e-25
6.2713e-07 4.1828e-25
6.2765e-07 4.2131e-25
6.2818e-07 4.2177e-25
6.287e-07 4.1632e-25
6.2923e-07 4.1116e-25
6.2975e-07 4.0624e-25
6.3028e-07 4.0059e-25
6.308e-07 3.9577e-25
6.3133e-07 3.9477e-25
6.3185e-07 3.9397e-25
6.3238e-07 3.9098e-25
6.3291e-07 3.8592e-25
6.3344e-07 3.8168e-25
6.3397e-07 3.7778e-25
6.3449e-07 3.746e-25
6.3502e-07 3.7108e-25
6.3555e-07 3.6736e-25
6.3608e-07 3.6401e-25
6.3661e-07 3.6045e-25
6.3715e-07 3.5743e-25
6.3768e-07 3.5374e-25
6.3821e-07 3.4981e-25
6.3874e-07 3.468e-25
6.3927e-07 3.4368e-25
6.3981e-07 3.3998e-25
6.4034e-07 3.3656e-25
6.4088e-07 3.3346e-25
6.4141e-07 3.2977e-25
6.4195e-07 3.2645e-25
6.4248e-07 3.2342e-25
6.4302e-07 3.209e-25
6.4355e-07 3.1928e-25
6.4409e-07 3.1788e-25
6.4463e-07 3.1679e-25
6.4516e-07 3.161e-25
6.457e-07 3.1679e-25
6.4624e-07 3.1878e-25
6.4678e-07 3.2013e-25
6.4732e-07 3.205e-25
6.4786e-07 3.1976e-25
6.484e-07 3.1673e-25
6.4894e-07 3.1227e-25
6.4948e-07 3.0644e-25
6.5003e-07 2.9892e-25
6.5057e-07 2.9427e-25
6.5111e-07 2.9532e-25
6.5165e-07 2.9899e-25
6.522e-07 2.9518e-25
6.5274e-07 2.8689e-25
6.5329e-07 2.8304e-25
6.5383e-07 2.817e-25
6.5438e-07 2.8045e-25
6.5492e-07 2.7987e-25
6.5547e-07 2.7856e-25
6.5601e-07 2.7529e-25
6.5656e-07 2.7215e-25
6.5711e-07 2.6859e-25
6.5766e-07 2.6427e-25
6.5821e-07 2.6061e-25
6.5876e-07 2.573e-25
6.5931e-07 2.5328e-25
6.5986e-07 2.5046e-25
6.6041e-07 2.4745e-25
6.6096e-07 2.4331e-25
6.6151e-07 2.3982e-25
6.6206e-07 2.3704e-25
6.6261e-07 2.3464e-25
6.6317e-07 2.3252e-25
6.6372e-07 2.3004e-25
6.6427e-07 2.2767e-25
6.6483e-07 2.2505e-25
6.6538e-07 2.2202e-25
6.6594e-07 2.192e-25
6.6649e-07 2.1638e-25
6.6705e-07 2.1344e-25
6.676e-07 2.1051e-25
6.6816e-07 2.0783e-25
6.6872e-07 2.0522e-25
6.6928e-07 2.0258e-25
6.6983e-07 1.9993e-25
6.7039e-07 1.9746e-25
6.7095e-07 1.9495e-25
6.7151e-07 1.9257e-25
6.7207e-07 1.9043e-25
6.7263e-07 1.883e-25
6.7319e-07 1.8611e-25
6.7376e-07 1.8407e-25
6.7432e-07 1.8213e-25
6.7488e-07 1.8019e-25
6.7544e-07 1.7834e-25
6.7601e-07 1.7659e-25
6.7657e-07 1.749e-25
6.7714e-07 1.7311e-25
6.777e-07 1.7132e-25
6.7827e-07 1.6982e-25
6.7883e-07 1.6838e-25
6.794e-07 1.6686e-25
6.7996e-07 1.6566e-25
6.8053e-07 1.6468e-25
6.811e-07 1.6342e-25
6.8167e-07 1.6263e-25
6.8224e-07 1.6217e-25
6.8281e-07 1.6138e-25
6.8338e-07 1.6032e-25
6.8395e-07 1.5981e-25
6.8452e-07 1.5911e-25
6.8509e-07 1.5762e-25
6.8566e-07 1.5654e-25
6.8623e-07 1.5773e-25
6.868e-07 1.6352e-25
6.8738e-07 1.717e-25
6.8795e-07 1.6749e-25
6.8852e-07 1.6192e-25
6.891e-07 1.6098e-25
6.8967e-07 1.5973e-25
6.9025e-07 1.5631e-25
6.9082e-07 1.5279e-25
6.914e-07 1.4982e-25
6.9198e-07 1.4863e-25
6.9255e-07 1.4948e-25
6.9313e-07 1.5033e-25
6.9371e-07 1.502e-25
6.9429e-07 1.4879e-25
6.9487e-07 1.4568e-25
6.9545e-07 1.431e-25
6.9603e-07 1.3999e-25
6.9661e-07 1.3512e-25
6.9719e-07 1.3114e-25
6.9777e-07 1.3005e-25
6.9835e-07 1.3128e-25
6.9894e-07 1.3332e-25
6.9952e-07 1.3303e-25
7.001e-07 1.3188e-25
7.0069e-07 1.3121e-25
7.0127e-07 1.3015e-25
7.0186e-07 1.2891e-25
7.0244e-07 1.2749e-25
7.0303e-07 1.2389e-25
7.0361e-07 1.2057e-25
7.042e-07 1.2063e-25
7.0479e-07 1.2138e-25
7.0538e-07 1.2126e-25
7.0596e-07 1.2069e-25
7.0655e-07 1.191e-25
7.0714e-07 1.1777e-25
7.0773e-07 1.17e-25
7.0832e-07 1.1544e-25
7.0891e-07 1.1399e-25
7.0951e-07 1.1399e-25
7.101e-07 1.1431e-25
7.1069e-07 1.1316e-25
7.1128e-07 1.1111e-25
7.1188e-07 1.0972e-25
7.1247e-07 1.1023e-25
7.1306e-07 1.1086e-25
7.1366e-07 1.1069e-25
7.1425e-07 1.1129e-25
7.1485e-07 1.1303e-25
7.1545e-07 1.1417e-25
7.1604e-07 1.1638e-25
7.1664e-07 1.2148e-25
7.1724e-07 1.2676e-25
7.1784e-07 1.2685e-25
7.1844e-07 1.2474e-25
7.1904e-07 1.2411e-25
7.1964e-07 1.241e-25
7.2024e-07 1.2222e-25
7.2084e-07 1.1552e-25
7.2144e-07 1.0873e-25
7.2204e-07 1.0516e-25
7.2264e-07 1.0467e-25
7.2324e-07 1.0712e-25
7.2385e-07 1.097e-25
7.2445e-07 1.0962e-25
7.2506e-07 1.0855e-25
7.2566e-07 1.0784e-25
7.2627e-07 1.0702e-25
7.2687e-07 1.0527e-25
7.2748e-07 1.05e-25
7.2809e-07 1.0313e-25
7.2869e-07 1.0061e-25
7.293e-07 1.0114e-25
7.2991e-07 1.0071e-25
7.3052e-07 1.0022e-25
7.3113e-07 9.9919e-26
7.3174e-07 9.6595e-26
7.3235e-07 9.198e-26
7.3296e-07 8.9921e-26
7.3357e-07 8.8449e-26
7.3418e-07 8.637e-26
7.348e-07 8.6758e-26
7.3541e-07 8.7353e-26
7.3602e-07 8.8119e-26
7.3664e-07 8.8303e-26
7.3725e-07 8.6716e-26
7.3787e-07 8.5232e-26
7.3848e-07 8.4686e-26
7.391e-07 8.4024e-26
7.3971e-07 8.2789e-26
7.4033e-07 8.1564e-26
7.4095e-07 8.0955e-26
7.4157e-07 8.0225e-26
7.4218e-07 7.9884e-26
7.428e-07 7.9646e-26
7.4342e-07 7.8753e-26
7.4404e-07 7.8653e-26
7.4466e-07 7.8615e-26
7.4529e-07 7.8572e-26
7.4591e-07 7.8707e-26
7.4653e-07 7.8488e-26
7.4715e-07 7.8432e-26
7.4778e-07 7.8133e-26
7.484e-07 7.7388e-26
7.4902e-07 7.6469e-26
7.4965e-07 7.5513e-26
7.5027e-07 7.4482e-26
7.509e-07 7.3151e-26
7.5153e-07 7.1569e-26
7.5215e-07 7.0088e-26
7.5278e-07 6.8754e-26
7.5341e-07 6.7558e-26
7.5404e-07 6.6537e-26
7.5467e-07 6.5659e-26
7.553e-07 6.4962e-26
7.5593e-07 6.4446e-26
7.5656e-07 6.4175e-26
7.5719e-07 6.4224e-26
7.5782e-07 6.4598e-26
7.5845e-07 6.5644e-26
7.5908e-07 6.7388e-26
7.5972e-07 7.0015e-26
7.6035e-07 7.614e-26
7.6099e-07 8.0126e-26
7.6162e-07 7.7081e-26
7.6226e-07 7.6931e-26
7.6289e-07 7.8676e-26
7.6353e-07 7.9877e-26
7.6417e-07 7.8146e-26
7.648e-07 7.5932e-26
7.6544e-07 7.3662e-26
7.6608e-07 7.1471e-26
7.6672e-07 6.9312e-26
7.6736e-07 6.7313e-26
7.68e-07 6.572e-26
7.6864e-07 6.4661e-26
7.6928e-07 6.3705e-26
7.6992e-07 6.2686e-26
7.7056e-07 6.1587e-26
7.7121e-07 6.084e-26
7.7185e-07 6.0719e-26
7.7249e-07 6.1028e-26
7.7314e-07 6.1138e-26
7.7378e-07 6.1346e-26
7.7443e-07 6.1835e-26
7.7508e-07 6.2472e-26
7.7572e-07 6.2906e-26
7.7637e-07 6.3321e-26
7.7702e-07 6.3928e-26
7.7766e-07 6.4464e-26
7.7831e-07 6.4762e-26
7.7896e-07 6.5086e-26
7.7961e-07 6.5175e-26
7.8026e-07 6.4777e-26
7.8091e-07 6.4213e-26
7.8157e-07 6.3671e-26
7.8222e-07 6.2942e-26
7.8287e-07 6.2097e-26
7.8352e-07 6.1609e-26
7.8418e-07 6.1459e-26
7.8483e-07 6.1059e-26
7.8549e-07 6.0374e-26
7.8614e-07 6.0704e-26
7.868e-07 6.1676e-26
7.8745e-07 6.1861e-26
7.8811e-07 6.1579e-26
7.8877e-07 6.212e-26
7.8943e-07 6.2767e-26
7.9008e-07 6.2092e-26
7.9074e-07 6.1091e-26
7.914e-07 6.0516e-26
7.9206e-07 5.9886e-26
7.9272e-07 5.8889e-26
7.9339e-07 5.0318e-26
7.9405e-07 2.7699e-26
7.9471e-07 6.6787e-27
7.9537e-07 -0
7.9604e-07 -0
7.967e-07 -0
7.9736e-07 -0
7.9803e-07 -0
7.987e-07 -0
7.9936e-07 -0
8.0003e-07 -0
8.007e-07 -0
8.0136e-07 -0
8.0203e-07 -0
8.027e-07 -0
8.0337e-07 -0
8.0404e-07 -0
8.0471e-07 -0
8.0538e-07 -0
8.0606e-07 -0
8.0673e-07 -0
8.074e-07 -0
8.0807e-07 -0
8.0875e-07 -0
8.0942e-07 -0
8.101e-07 -0
8.1077e-07 -0
8.1145e-07 -0
8.1213e-07 -0
8.1281e-07 -0
8.1348e-07 -0
8.1416e-07 -0
8.1484e-07 -0
8.1552e-07 -0
8.162e-07 -0
8.1688e-07 -0
8.1756e-07 -0
8.1825e-07 -0
8.1893e-07 -0
8.1961e-07 -0
8.203e-07 -0
8.2098e-07 -0
8.2166e-07 -0
8.2235e-07 -0
8.2304e-07 -0
8.2372e-07 -0
8.2441e-07 -0
8.251e-07 -0
8.2579e-07 -0
8.2647e-07 -0
8.2716e-07 -0
8.2785e-07 -0
8.2854e-07 -0
8.2924e-07 -0
8.2993e-07 -0
8.3062e-07 -0
8.3131e-07 -0
8.3201e-07 -0
8.327e-07 -0
8.334e-07 -0
8.3409e-07 -0
8.3479e-07 -0
8.3548e-07 -0
8.3618e-07 -0
8.3688e-07 -0
8.3758e-07 -0
8.3827e-07 -0
8.3897e-07 -0
8.3967e-07 -0
8.4037e-07 -0
8.4107e-07 -0
8.4178e-07 -0
8.4248e-07 -0
8.4318e-07 -0
8.4388e-07 -0
8.4459e-07 -0
8.4529e-07 -0
8.46e-07 -0
8.467e-07 -0
8.4741e-07 -0
8.4812e-07 -0
8.4883e-07 -0
8.4953e-07 -0
8.5024e-07 -0
8.5095e-07 -0
8.5166e-07 -0
8.5237e-07 -0
8.5308e-07 -0
8.5379e-07 -0
8.5451e-07 -0
8.5522e-07 -0
8.5593e-07 -0
8.5665e-07 -0
8.5736e-07 -0
8.5808e-07 -0
8.5879e-07 -0
8.5951e-07 -0
8.6023e-07 -0
8.6094e-07 -0
8.6166e-07 -0
8.6238e-07 -0
8.631e-07 -0
8.6382e-07 -0
8.6454e-07 -0
8.6526e-07 -0
8.6598e-07 -0
8.6671e-07 -0
8.6743e-07 -0
8.6815e-07 -0
8.6888e-07 -0
8.696e-07 -0
8.7033e-07 -0
8.7105e-07 -0
8.7178e-07 -0
8.7251e-07 -0
8.7324e-07 -0
8.7396e-07 -0
8.7469e-07 -0
8.7542e-07 -0
8.7615e-07 -0
8.7688e-07 -0
8.7762e-07 -0
8.7835e-07 -0
8.7908e-07 -0
8.7981e-07 -0
8.8055e-07 -0
8.8128e-07 -0
8.8202e-07 -0
8.8275e-07 -0
8.8349e-07 -0
8.8423e-07 -0
8.8496e-07 -0
8.857e-07 -0
8.8644e-07 -0
8.8718e-07 -0
8.8792e-07 -0
8.8866e-07 -0
8.894e-07 -0
8.9015e-07 -0
8.9089e-07 -0
8.9163e-07 -0
8.9237e-07 -0
8.9312e-07 -0
8.9386e-07 -0
8.9461e-07 -0
8.9536e-07 -0
8.961e-07 -0
8.9685e-07 -0
8.976e-07 -0
8.9835e-07 -0
8.991e-07 -0
8.9985e-07 -0
9.006e-07 -0
9.0135e-07 -0
9.021e-07 -0
9.0285e-07 -0
9.0361e-07 -0
9.0436e-07 -0
9.0512e-07 -0
9.0587e-07 -0
9.0663e-07 -0
9.0738e-07 -0
9.0814e-07 -0
9.089e-07 -0
9.0966e-07 -0
9.1041e-07 -0
9.1117e-07 -0
9.1193e-07 -0
9.1269e-07 -0
9.1346e-07 -0
9.1422e-07 -0
9.1498e-07 -0
9.1574e-07 -0
9.1651e-07 -0
9.1727e-07 -0
9.1804e-07 -0
9.188e-07 -0
9.1957e-07 -0
9.2034e-07 -0
9.211e-07 -0
9.2187e-07 -0
9.2264e-07 -0
9.2341e-07 -0
9.2418e-07 -0
9.2495e-07 -0
9.2572e-07 -0
9.265e-07 -0
9.2727e-07 -0
9.2804e-07 -0
9.2882e-07 -0
9.2959e-07 -0
9.3037e-07 -0
9.3114e-07 -0
9.3192e-07 -0
9.327e-07 -0
9.3348e-07 -0
9.3426e-07 -0
9.3503e-07 -0
9.3581e-07 -0
9.366e-07 -0
9.3738e-07 -0
9.3816e-07 -0
9.3894e-07 -0
9.3972e-07 -0
9.4051e-07 -0
9.4129e-07 -0
9.4208e-07 -0
9.4286e-07 -0
9.4365e-07 -0
9.4444e-07 -0
9.4523e-07 -0
9.4601e-07 -0
9.468e-07 -0
9.4759e-07 -0
9.4838e-07 -0
9.4918e-07 -0
9.4997e-07 -0
9.5076e-07 -0
9.5155e-07 -0
9.5235e-07 -0
9.5314e-07 -0
9.5394e-07 -0
9.5473e-07 -0
9.5553e-07 -0
9.5633e-07 -0
9.5712e-07 -0
9.5792e-07 -0
9.5872e-07 -0
9.5952e-07 -0
9.6032e-07 -0
9.6112e-07 -0
9.6192e-07 -0
9.6273e-07 -0
9.6353e-07 -0
9.6433e-07 -0
9.6514e-07 -0
9.6594e-07 -0
9.6675e-07 -0
9.6756e-07 -0
9.6836e-07 -0
9.6917e-07 -0
9.6998e-07 -0
9.7079e-07 -0
9.716e-07 -0
9.7241e-07 -0
9.7322e-07 -0
9.7403e-07 -0
9.7484e-07 -0
9.7566e-07 -0
9.7647e-07 -0
9.7729e-07 -0
9.781e-07 -0
9.7892e-07 -0
9.7973e-07 -0
9.8055e-07 -0
9.8137e-07 -0
9.8219e-07 -0
9.8301e-07 -0
9.8383e-07 -0
9.8465e-07 -0
9.8547e-07 -0
9.8629e-07 -0
9.8711e-07 -0
9.8794e-07 -0
9.8876e-07 -0
9.8959e-07 -0
9.9041e-07 -0
9.9124e-07 -0
9.9207e-07 -0
9.9289e-07 -0
9.9372e-07 -0
9.9455e-07 -0
9.9538e-07 -0
9.9621e-07 -0
9.9704e-07 -0
9.9787e-07 -0
9.9871e-07 -0
9.9954e-07 -0
1.0004e-06 -0
1.0012e-06 -0
1.002e-06 -0
1.0029e-06 -0
1.0037e-06 -0
1.0046e-06 -0
1.0054e-06 -0
1.0062e-06 -0
1.0071e-06 -0
1.0079e-06 -0
1.0087e-06 -0
1.0096e-06 -0
1.0104e-06 -0
1.0113e-06 -0
1.0121e-06 -0
1.013e-06 -0
1.0138e-06 -0
1.0147e-06 -0
1.0155e-06 -0
1.0163e-06 -0
1.0172e-06 -0
1.018e-06 -0
1.0189e-06 -0
1.0197e-06 -0
1.0206e-06 -0
1.0214e-06 -0
1.0223e-06 -0
1.0232e-06 -0
1.024e-06 -0
1.0249e-06 -0
1.0257e-06 -0
1.0266e-06 -0
1.0274e-06 -0
1.0283e-06 -0
1.0291e-06 -0
1.03e-06 -0
