2.8e-07 3.8758e-22
2.8023e-07 3.7656e-22
2.8047e-07 3.6931e-22
2.807e-07 3.6479e-22
2.8094e-07 3.5862e-22
2.8117e-07 3.4555e-22
2.814e-07 3.3378e-22
2.8164e-07 3.2578e-22
2.8187e-07 3.2089e-22
2.8211e-07 3.1706e-22
2.8234e-07 3.1057e-22
2.8258e-07 3.0353e-22
2.8282e-07 2.9899e-22
2.8305e-07 2.9698e-22
2.8329e-07 2.945e-22
2.8352e-07 2.8369e-22
2.8376e-07 2.7175e-22
2.84e-07 2.6371e-22
2.8423e-07 2.5829e-22
2.8447e-07 2.537e-22
2.8471e-07 2.4828e-22
2.8495e-07 2.4005e-22
2.8518e-07 2.3186e-22
2.8542e-07 2.2647e-22
2.8566e-07 2.231e-22
2.859e-07 2.1945e-22
2.8614e-07 2.1424e-22
2.8638e-07 2.0831e-22
2.8661e-07 2.0304e-22
2.8685e-07 1.9894e-22
2.8709e-07 1.9482e-22
2.8733e-07 1.8833e-22
2.8757e-07 1.8059e-22
2.8781e-07 1.7379e-22
2.8805e-07 1.6838e-22
2.8829e-07 1.6428e-22
2.8853e-07 1.6056e-22
2.8877e-07 1.5645e-22
2.8901e-07 1.522e-22
2.8926e-07 1.4774e-22
2.895e-07 1.4328e-22
2.8974e-07 1.3955e-22
2.8998e-07 1.3631e-22
2.9022e-07 1.3323e-22
2.9046e-07 1.3022e-22
2.9071e-07 1.2688e-22
2.9095e-07 1.2292e-22
2.9119e-07 1.1845e-22
2.9143e-07 1.1367e-22
2.9168e-07 1.0946e-22
2.9192e-07 1.0602e-22
2.9216e-07 1.0325e-22
2.9241e-07 1.0113e-22
2.9265e-07 9.9027e-23
2.929e-07 9.6097e-23
2.9314e-07 9.2518e-23
2.9339e-07 8.8842e-23
2.9363e-07 8.5552e-23
2.9388e-07 8.3034e-23
2.9412e-07 8.1104e-23
2.9437e-07 7.9206e-23
2.9461e-07 7.7055e-23
2.9486e-07 7.455e-23
2.951e-07 7.1595e-23
2.9535e-07 6.8641e-23
2.956e-07 6.6239e-23
2.9584e-07 6.413e-23
2.9609e-07 6.1854e-23
2.9634e-07 5.9835e-23
2.9658e-07 5.8428e-23
2.9683e-07 5.6937e-23
2.9708e-07 5.4796e-23
2.9733e-07 5.2581e-23
2.9757e-07 5.0577e-23
2.9782e-07 4.8782e-23
2.9807e-07 4.7264e-23
2.9832e-07 4.5908e-23
2.9857e-07 4.4645e-23
2.9882e-07 4.3416e-23
2.9907e-07 4.1897e-23
2.9932e-07 4.0085e-23
2.9957e-07 3.841e-23
2.9982e-07 3.7161e-23
3.0007e-07 3.6178e-23
3.0032e-07 3.5194e-23
3.0057e-07 3.4096e-23
3.0082e-07 3.2752e-23
3.0107e-07 3.1268e-23
3.0132e-07 2.9987e-23
3.0157e-07 2.9087e-23
3.0182e-07 2.8446e-23
3.0207e-07 2.7762e-23
3.0233e-07 2.6837e-23
3.0258e-07 2.57e-23
3.0283e-07 2.4501e-23
3.0308e-07 2.3458e-23
3.0334e-07 2.2676e-23
3.0359e-07 2.2135e-23
3.0384e-07 2.1757e-23
3.041e-07 2.1311e-23
3.0435e-07 2.0601e-23
3.046e-07 1.9676e-23
3.0486e-07 1.8654e-23
3.0511e-07 1.7701e-23
3.0537e-07 1.6994e-23
3.0562e-07 1.6575e-23
3.0588e-07 1.6299e-23
3.0613e-07 1.6035e-23
3.0639e-07 1.5656e-23
3.0664e-07 1.5052e-23
3.069e-07 1.4277e-23
3.0715e-07 1.3445e-23
3.0741e-07 1.2737e-23
3.0767e-07 1.2311e-23
3.0792e-07 1.2137e-23
3.0818e-07 1.1954e-23
3.0844e-07 1.165e-23
3.087e-07 1.1375e-23
3.0895e-07 1.109e-23
3.0921e-07 1.0571e-23
3.0947e-07 9.8297e-24
3.0973e-07 9.2012e-24
3.0998e-07 8.9143e-24
3.1024e-07 8.7882e-24
3.105e-07 8.5672e-24
3.1076e-07 8.2905e-24
3.1102e-07 8.1021e-24
3.1128e-07 8.0029e-24
3.1154e-07 7.7875e-24
3.118e-07 7.3396e-24
3.1206e-07 6.8553e-24
3.1232e-07 6.4774e-24
3.1258e-07 6.1728e-24
3.1284e-07 5.9531e-24
3.131e-07 5.8824e-24
3.1336e-07 5.9662e-24
3.1362e-07 5.9883e-24
3.1389e-07 5.7305e-24
3.1415e-07 5.2843e-24
3.1441e-07 4.8073e-24
3.1467e-07 4.4519e-24
3.1494e-07 4.3041e-24
3.152e-07 4.346e-24
3.1546e-07 4.479e-24
3.1572e-07 4.4207e-24
3.1599e-07 4.0735e-24
3.1625e-07 3.6972e-24
3.1651e-07 3.4256e-24
3.1678e-07 3.3094e-24
3.1704e-07 3.3411e-24
3.1731e-07 3.416e-24
3.1757e-07 3.4623e-24
3.1784e-07 3.3661e-24
3.181e-07 3.0605e-24
3.1837e-07 2.6875e-24
3.1863e-07 2.3853e-24
3.189e-07 2.2037e-24
3.1917e-07 2.2214e-24
3.1943e-07 2.4258e-24
3.197e-07 2.6079e-24
3.1996e-07 2.6394e-24
3.2023e-07 2.4711e-24
3.205e-07 2.1397e-24
3.2077e-07 1.7985e-24
3.2103e-07 1.543e-24
3.213e-07 1.4234e-24
3.2157e-07 1.4467e-24
3.2184e-07 1.6448e-24
3.2211e-07 1.8953e-24
3.2238e-07 1.9795e-24
3.2264e-07 1.9344e-24
3.2291e-07 1.7521e-24
3.2318e-07 1.4018e-24
3.2345e-07 1.0747e-24
3.2372e-07 8.8482e-25
3.2399e-07 8.5191e-25
3.2426e-07 9.2576e-25
3.2453e-07 1.0814e-24
3.248e-07 1.3071e-24
3.2507e-07 1.3906e-24
3.2535e-07 1.2833e-24
3.2562e-07 1.1417e-24
3.2589e-07 9.5346e-25
3.2616e-07 7.4731e-25
3.2643e-07 6.0158e-25
3.2671e-07 5.3869e-25
3.2698e-07 5.8196e-25
3.2725e-07 6.7625e-25
3.2752e-07 7.6689e-25
3.278e-07 9.1512e-25
3.2807e-07 1.0108e-24
3.2834e-07 8.7985e-25
3.2862e-07 6.4771e-25
3.2889e-07 4.6879e-25
3.2917e-07 3.5952e-25
3.2944e-07 3.0915e-25
3.2972e-07 3.0015e-25
3.2999e-07 3.4638e-25
3.3027e-07 4.5768e-25
3.3054e-07 5.4428e-25
3.3082e-07 5.8272e-25
3.3109e-07 6.2473e-25
3.3137e-07 5.873e-25
3.3165e-07 4.542e-25
3.3192e-07 3.266e-25
3.322e-07 2.4128e-25
3.3248e-07 1.9526e-25
3.3275e-07 1.9106e-25
3.3303e-07 2.1581e-25
3.3331e-07 2.6949e-25
3.3359e-07 3.6602e-25
3.3387e-07 4.2505e-25
3.3414e-07 3.7131e-25
3.3442e-07 2.7778e-25
3.347e-07 2.0926e-25
3.3498e-07 1.5863e-25
3.3526e-07 1.2178e-25
3.3554e-07 1.0223e-25
3.3582e-07 9.6726e-26
3.361e-07 1.1281e-25
3.3638e-07 1.495e-25
3.3666e-07 1.8033e-25
3.3694e-07 2.2054e-25
3.3722e-07 2.747e-25
3.375e-07 2.7519e-25
3.3779e-07 2.1654e-25
3.3807e-07 1.5262e-25
3.3835e-07 1.0776e-25
3.3863e-07 8.1365e-26
3.3891e-07 6.9346e-26
3.392e-07 6.8365e-26
3.3948e-07 7.4819e-26
3.3976e-07 9.3787e-26
3.4005e-07 1.2667e-25
3.4033e-07 1.4353e-25
3.4061e-07 1.2303e-25
3.409e-07 8.852e-26
3.4118e-07 6.2397e-26
3.4147e-07 4.5797e-26
3.4175e-07 3.7174e-26
3.4204e-07 3.3466e-26
3.4232e-07 3.0758e-26
3.4261e-07 3.0308e-26
3.4289e-07 3.6166e-26
3.4318e-07 4.5187e-26
3.4347e-07 5.5205e-26
3.4375e-07 7.6431e-26
3.4404e-07 1.0173e-25
3.4433e-07 1.0014e-25
3.4461e-07 7.5041e-26
3.449e-07 5.2913e-26
3.4519e-07 3.965e-26
3.4548e-07 3.2785e-26
3.4577e-07 2.8784e-26
3.4605e-07 2.4505e-26
3.4634e-07 2.0799e-26
3.4663e-07 1.9899e-26
3.4692e-07 2.4643e-26
3.4721e-07 3.2752e-26
3.475e-07 3.4263e-26
3.4779e-07 2.7254e-26
3.4808e-07 1.9505e-26
3.4837e-07 1.4561e-26
3.4866e-07 1.1855e-26
3.4895e-07 1.031e-26
3.4924e-07 1.0168e-26
3.4953e-07 1.1014e-26
3.4983e-07 1.1003e-26
3.5012e-07 1.0384e-26
3.5041e-07 1.0155e-26
3.507e-07 1.0699e-26
3.5099e-07 1.5092e-26
3.5129e-07 2.4608e-26
3.5158e-07 3.0682e-26
3.5187e-07 2.7274e-26
3.5217e-07 2.0484e-26
3.5246e-07 1.5653e-26
3.5276e-07 1.2428e-26
3.5305e-07 9.6835e-27
3.5334e-07 7.4698e-27
3.5364e-07 5.7794e-27
3.5393e-07 4.4549e-27
3.5423e-07 3.7092e-27
3.5452e-07 3.8167e-27
3.5482e-07 4.6413e-27
3.5512e-07 5.215e-27
3.5541e-07 4.738e-27
3.5571e-07 3.7138e-27
3.5601e-07 2.9165e-27
3.563e-07 2.6264e-27
3.566e-07 3.0168e-27
3.569e-07 3.4998e-27
3.572e-07 3.3316e-27
3.5749e-07 2.8923e-27
3.5779e-07 2.4578e-27
3.5809e-07 1.9562e-27
3.5839e-07 1.5875e-27
3.5869e-07 1.6449e-27
3.5899e-07 2.6015e-27
3.5929e-07 4.3879e-27
3.5959e-07 5.6644e-27
3.5989e-07 5.5875e-27
3.6019e-07 4.799e-27
3.6049e-07 3.8947e-27
3.6079e-07 3.021e-27
3.6109e-07 2.333e-27
3.6139e-07 1.8242e-27
3.6169e-07 1.4509e-27
3.6199e-07 1.2217e-27
3.623e-07 1.1124e-27
3.626e-07 1.0257e-27
3.629e-07 9.4977e-28
3.632e-07 9.36e-28
3.6351e-07 9.5103e-28
3.6381e-07 9.1342e-28
3.6411e-07 8.6019e-28
3.6442e-07 9.6993e-28
3.6472e-07 1.2185e-27
3.6502e-07 1.2979e-27
3.6533e-07 1.1997e-27
3.6563e-07 1.0643e-27
3.6594e-07 8.9185e-28
3.6624e-07 7.5958e-28
3.6655e-07 7.1268e-28
3.6686e-07 7.0137e-28
3.6716e-07 7.1542e-28
3.6747e-07 7.353e-28
3.6777e-07 7.1411e-28
3.6808e-07 6.5343e-28
3.6839e-07 6.0352e-28
3.687e-07 5.8672e-28
3.69e-07 5.8802e-28
3.6931e-07 5.9915e-28
3.6962e-07 6.2692e-28
3.6993e-07 7.0488e-28
3.7024e-07 9.2086e-28
3.7054e-07 1.1909e-27
3.7085e-07 1.281e-27
3.7116e-07 1.2118e-27
3.7147e-07 1.0854e-27
3.7178e-07 9.3742e-28
3.7209e-07 8.182e-28
3.724e-07 7.3625e-28
3.7271e-07 6.7878e-28
3.7302e-07 6.5237e-28
3.7334e-07 6.692e-28
3.7365e-07 6.9329e-28
3.7396e-07 6.7755e-28
3.7427e-07 6.567e-28
3.7458e-07 6.4267e-28
3.749e-07 6.7234e-28
3.7521e-07 9.0693e-28
3.7552e-07 1.1389e-27
3.7583e-07 1.1478e-27
3.7615e-07 1.0984e-27
3.7646e-07 1.0045e-27
3.7678e-07 8.9213e-28
3.7709e-07 8.3761e-28
3.7741e-07 7.7759e-28
3.7772e-07 7.394e-28
3.7804e-07 6.9361e-28
3.7835e-07 6.3793e-28
3.7867e-07 5.9893e-28
3.7898e-07 5.5959e-28
3.793e-07 5.3858e-28
3.7961e-07 5.3502e-28
3.7993e-07 5.31e-28
3.8025e-07 5.3015e-28
3.8057e-07 5.3123e-28
3.8088e-07 5.3385e-28
3.812e-07 5.3824e-28
3.8152e-07 5.4235e-28
3.8184e-07 5.4334e-28
3.8216e-07 5.4219e-28
3.8247e-07 5.4248e-28
3.8279e-07 5.444e-28
3.8311e-07 5.4587e-28
3.8343e-07 5.5153e-28
3.8375e-07 5.6234e-28
3.8407e-07 5.6759e-28
3.8439e-07 5.6744e-28
3.8471e-07 5.6924e-28
3.8503e-07 5.6898e-28
3.8536e-07 5.6326e-28
3.8568e-07 5.5798e-28
3.86e-07 5.5348e-28
3.8632e-07 5.4801e-28
3.8664e-07 5.7273e-28
3.8697e-07 6.2471e-28
3.8729e-07 6.7651e-28
3.8761e-07 7.6231e-28
3.8793e-07 8.4096e-28
3.8826e-07 8.2318e-28
3.8858e-07 7.7354e-28
3.8891e-07 8.3524e-28
3.8923e-07 9.4689e-28
3.8956e-07 9.5416e-28
3.8988e-07 9.4969e-28
3.9021e-07 9.9962e-28
3.9053e-07 9.87e-28
3.9086e-07 9.3747e-28
3.9118e-07 9.4805e-28
3.9151e-07 1.0034e-27
3.9184e-07 1.0763e-27
3.9216e-07 1.1051e-27
3.9249e-07 1.0561e-27
3.9282e-07 1.0028e-27
3.9315e-07 9.7917e-28
3.9347e-07 9.8867e-28
3.938e-07 1.0601e-27
3.9413e-07 1.1328e-27
3.9446e-07 1.2018e-27
3.9479e-07 1.2185e-27
3.9512e-07 1.2047e-27
3.9545e-07 1.2075e-27
3.9578e-07 1.1807e-27
3.9611e-07 1.1499e-27
3.9644e-07 1.1488e-27
3.9677e-07 1.1591e-27
3.971e-07 1.1756e-27
3.9743e-07 1.1852e-27
3.9776e-07 1.1334e-27
3.9809e-07 1.0304e-27
3.9843e-07 9.9682e-28
3.9876e-07 1.0925e-27
3.9909e-07 1.2042e-27
3.9942e-07 1.2225e-27
3.9976e-07 1.1829e-27
4.0009e-07 1.1798e-27
4.0042e-07 1.2464e-27
4.0076e-07 1.3097e-27
4.0109e-07 1.33e-27
4.0143e-07 1.3595e-27
4.0176e-07 1.4166e-27
4.021e-07 1.4709e-27
4.0243e-07 1.4994e-27
4.0277e-07 1.4997e-27
4.031e-07 1.4774e-27
4.0344e-07 1.4477e-27
4.0378e-07 1.4365e-27
4.0411e-07 1.4439e-27
4.0445e-07 1.4452e-27
4.0479e-07 1.4391e-27
4.0513e-07 1.4454e-27
4.0546e-07 1.4769e-27
4.058e-07 1.5332e-27
4.0614e-07 1.604e-27
4.0648e-07 1.6932e-27
4.0682e-07 1.8199e-27
4.0716e-07 1.9767e-27
4.075e-07 2.1337e-27
4.0784e-07 2.2764e-27
4.0818e-07 2.3996e-27
4.0852e-07 2.4954e-27
4.0886e-07 2.5732e-27
4.092e-07 2.6493e-27
4.0954e-07 2.7117e-27
4.0988e-07 2.7429e-27
4.1023e-07 2.7533e-27
4.1057e-07 2.7595e-27
4.1091e-07 2.7598e-27
4.1125e-07 2.7495e-27
4.116e-07 2.7284e-27
4.1194e-07 2.6887e-27
4.1228e-07 2.6217e-27
4.1263e-07 2.5352e-27
4.1297e-07 2.4557e-27
4.1332e-07 2.4123e-27
4.1366e-07 2.425e-27
4.1401e-07 2.4951e-27
4.1435e-07 2.6007e-27
4.147e-07 2.7283e-27
4.1504e-07 2.8792e-27
4.1539e-07 3.0424e-27
4.1574e-07 3.2009e-27
4.1608e-07 3.3434e-27
4.1643e-07 3.4711e-27
4.1678e-07 3.5871e-27
4.1712e-07 3.6869e-27
4.1747e-07 3.7675e-27
4.1782e-07 3.8176e-27
4.1817e-07 3.821e-27
4.1852e-07 3.7754e-27
4.1887e-07 3.7168e-27
4.1922e-07 3.6879e-27
4.1957e-07 3.6935e-27
4.1992e-07 3.7303e-27
4.2027e-07 3.7892e-27
4.2062e-07 3.8758e-27
4.2097e-07 4.024e-27
4.2132e-07 4.2411e-27
4.2167e-07 4.4947e-27
4.2202e-07 4.7592e-27
4.2238e-07 5.0485e-27
4.2273e-07 5.3772e-27
4.2308e-07 5.7147e-27
4.2343e-07 6.0288e-27
4.2379e-07 6.3346e-27
4.2414e-07 6.6471e-27
4.2449e-07 6.9416e-27
4.2485e-07 7.1905e-27
4.252e-07 7.3866e-27
4.2556e-07 7.5031e-27
4.2591e-07 7.5134e-27
4.2627e-07 7.4557e-27
4.2662e-07 7.387e-27
4.2698e-07 7.3008e-27
4.2733e-07 7.161e-27
4.2769e-07 6.9841e-27
4.2805e-07 6.8105e-27
4.2841e-07 6.6615e-27
4.2876e-07 6.5486e-27
4.2912e-07 6.4793e-27
4.2948e-07 6.4573e-27
4.2984e-07 6.5139e-27
4.302e-07 6.6631e-27
4.3055e-07 6.892e-27
4.3091e-07 7.1971e-27
4.3127e-07 7.5609e-27
4.3163e-07 7.932e-27
4.3199e-07 8.2707e-27
4.3235e-07 8.5721e-27
4.3271e-07 8.8234e-27
4.3307e-07 9.0107e-27
4.3344e-07 9.1435e-27
4.338e-07 9.2007e-27
4.3416e-07 9.1574e-27
4.3452e-07 9.0748e-27
4.3488e-07 9.0289e-27
4.3525e-07 9.015e-27
4.3561e-07 9.0087e-27
4.3597e-07 9.0386e-27
4.3634e-07 9.1509e-27
4.367e-07 9.3527e-27
4.3707e-07 9.6299e-27
4.3743e-07 9.9985e-27
4.3779e-07 1.0471e-26
4.3816e-07 1.1055e-26
4.3853e-07 1.1762e-26
4.3889e-07 1.2537e-26
4.3926e-07 1.3271e-26
4.3962e-07 1.3971e-26
4.3999e-07 1.4707e-26
4.4036e-07 1.5447e-26
4.4073e-07 1.6153e-26
4.4109e-07 1.6877e-26
4.4146e-07 1.756e-26
4.4183e-07 1.8135e-26
4.422e-07 1.8677e-26
4.4257e-07 1.9212e-26
4.4294e-07 1.9459e-26
4.4331e-07 1.9261e-26
4.4368e-07 1.8901e-26
4.4405e-07 1.8595e-26
4.4442e-07 1.8258e-26
4.4479e-07 1.7822e-26
4.4516e-07 1.7288e-26
4.4553e-07 1.6744e-26
4.459e-07 1.6277e-26
4.4627e-07 1.5882e-26
4.4664e-07 1.5629e-26
4.4702e-07 1.5601e-26
4.4739e-07 1.5775e-26
4.4776e-07 1.6115e-26
4.4814e-07 1.6591e-26
4.4851e-07 1.7191e-26
4.4889e-07 1.7875e-26
4.4926e-07 1.8568e-26
4.4963e-07 1.9236e-26
4.5001e-07 1.9862e-26
4.5038e-07 2.0371e-26
4.5076e-07 2.07e-26
4.5114e-07 2.0823e-26
4.5151e-07 2.081e-26
4.5189e-07 2.075e-26
4.5227e-07 2.068e-26
4.5264e-07 2.06e-26
4.5302e-07 2.0484e-26
4.534e-07 2.0323e-26
4.5378e-07 2.0243e-26
4.5416e-07 2.0459e-26
4.5454e-07 2.1016e-26
4.5491e-07 2.1762e-26
4.5529e-07 2.2496e-26
4.5567e-07 2.3145e-26
4.5605e-07 2.3887e-26
4.5643e-07 2.4915e-26
4.5682e-07 2.623e-26
4.572e-07 2.7725e-26
4.5758e-07 2.9298e-26
4.5796e-07 3.0876e-26
4.5834e-07 3.2431e-26
4.5872e-07 3.3964e-26
4.5911e-07 3.5489e-26
4.5949e-07 3.7029e-26
4.5987e-07 3.8544e-26
4.6026e-07 3.9931e-26
4.6064e-07 4.1065e-26
4.6102e-07 4.1885e-26
4.6141e-07 4.2381e-26
4.6179e-07 4.2549e-26
4.6218e-07 4.2434e-26
4.6256e-07 4.2097e-26
4.6295e-07 4.1506e-26
4.6334e-07 4.0602e-26
4.6372e-07 3.9487e-26
4.6411e-07 3.8344e-26
4.645e-07 3.7259e-26
4.6489e-07 3.6269e-26
4.6527e-07 3.5442e-26
4.6566e-07 3.4892e-26
4.6605e-07 3.4728e-26
4.6644e-07 3.4997e-26
4.6683e-07 3.558e-26
4.6722e-07 3.6412e-26
4.6761e-07 3.7367e-26
4.68e-07 3.8438e-26
4.6839e-07 3.9637e-26
4.6878e-07 4.0859e-26
4.6917e-07 4.1972e-26
4.6956e-07 4.2969e-26
4.6995e-07 4.3633e-26
4.7034e-07 4.3857e-26
4.7074e-07 4.3997e-26
4.7113e-07 4.4043e-26
4.7152e-07 4.391e-26
4.7192e-07 4.3813e-26
4.7231e-07 4.3805e-26
4.727e-07 4.3827e-26
4.731e-07 4.3944e-26
4.7349e-07 4.4305e-26
4.7389e-07 4.4821e-26
4.7428e-07 4.5585e-26
4.7468e-07 4.6604e-26
4.7507e-07 4.7877e-26
4.7547e-07 4.9424e-26
4.7587e-07 5.1283e-26
4.7626e-07 5.3401e-26
4.7666e-07 5.5707e-26
4.7706e-07 5.8165e-26
4.7746e-07 6.0747e-26
4.7786e-07 6.3421e-26
4.7825e-07 6.6168e-26
4.7865e-07 6.9024e-26
4.7905e-07 7.1975e-26
4.7945e-07 7.493e-26
4.7985e-07 7.7737e-26
4.8025e-07 8.033e-26
4.8065e-07 8.2734e-26
4.8105e-07 8.4869e-26
4.8146e-07 8.6564e-26
4.8186e-07 8.7708e-26
4.8226e-07 8.8314e-26
4.8266e-07 8.8414e-26
4.8306e-07 8.805e-26
4.8347e-07 8.733e-26
4.8387e-07 8.6334e-26
4.8427e-07 8.5224e-26
4.8468e-07 8.4118e-26
4.8508e-07 8.2858e-26
4.8549e-07 8.1342e-26
4.8589e-07 7.9645e-26
4.863e-07 7.8308e-26
4.867e-07 7.7525e-26
4.8711e-07 7.7195e-26
4.8752e-07 7.722e-26
4.8792e-07 7.7649e-26
4.8833e-07 7.8449e-26
4.8874e-07 7.9651e-26
4.8914e-07 8.1041e-26
4.8955e-07 8.2292e-26
4.8996e-07 8.3499e-26
4.9037e-07 8.4769e-26
4.9078e-07 8.5913e-26
4.9119e-07 8.6846e-26
4.916e-07 8.7634e-26
4.9201e-07 8.8229e-26
4.9242e-07 8.8638e-26
4.9283e-07 8.8931e-26
4.9324e-07 8.9186e-26
4.9365e-07 8.9443e-26
4.9406e-07 8.9784e-26
4.9448e-07 9.0237e-26
4.9489e-07 9.0804e-26
4.953e-07 9.1604e-26
4.9571e-07 9.2748e-26
4.9613e-07 9.4234e-26
4.9654e-07 9.603e-26
4.9696e-07 9.8127e-26
4.9737e-07 1.0057e-25
4.9779e-07 1.0342e-25
4.982e-07 1.0667e-25
4.9862e-07 1.102e-25
4.9903e-07 1.1398e-25
4.9945e-07 1.18e-25
4.9986e-07 1.2225e-25
5.0028e-07 1.2677e-25
5.007e-07 1.3136e-25
5.0112e-07 1.3634e-25
5.0154e-07 1.4178e-25
5.0195e-07 1.4664e-25
5.0237e-07 1.5106e-25
5.0279e-07 1.558e-25
5.0321e-07 1.6132e-25
5.0363e-07 1.6726e-25
5.0405e-07 1.7107e-25
5.0447e-07 1.72e-25
5.0489e-07 1.7165e-25
5.0531e-07 1.7213e-25
5.0573e-07 1.7366e-25
5.0616e-07 1.7368e-25
5.0658e-07 1.7307e-25
5.07e-07 1.7307e-25
5.0742e-07 1.723e-25
5.0785e-07 1.7028e-25
5.0827e-07 1.6818e-25
5.087e-07 1.6616e-25
5.0912e-07 1.6444e-25
5.0954e-07 1.6316e-25
5.0997e-07 1.6156e-25
5.104e-07 1.6015e-25
5.1082e-07 1.5932e-25
5.1125e-07 1.5904e-25
5.1167e-07 1.5908e-25
5.121e-07 1.5965e-25
5.1253e-07 1.6054e-25
5.1296e-07 1.6157e-25
5.1338e-07 1.6284e-25
5.1381e-07 1.6425e-25
5.1424e-07 1.6583e-25
5.1467e-07 1.6747e-25
5.151e-07 1.6908e-25
5.1553e-07 1.7064e-25
5.1596e-07 1.7209e-25
5.1639e-07 1.7347e-25
5.1682e-07 1.7481e-25
5.1725e-07 1.7612e-25
5.1768e-07 1.7746e-25
5.1811e-07 1.7883e-25
5.1855e-07 1.8023e-25
5.1898e-07 1.8167e-25
5.1941e-07 1.8321e-25
5.1984e-07 1.8489e-25
5.2028e-07 1.8673e-25
5.2071e-07 1.8877e-25
5.2115e-07 1.9108e-25
5.2158e-07 1.9368e-25
5.2202e-07 1.9657e-25
5.2245e-07 1.9973e-25
5.2289e-07 2.0331e-25
5.2332e-07 2.0733e-25
5.2376e-07 2.118e-25
5.242e-07 2.1645e-25
5.2464e-07 2.2086e-25
5.2507e-07 2.2489e-25
5.2551e-07 2.2879e-25
5.2595e-07 2.3284e-25
5.2639e-07 2.3762e-25
5.2683e-07 2.4277e-25
5.2727e-07 2.4753e-25
5.2771e-07 2.5175e-25
5.2815e-07 2.5602e-25
5.2859e-07 2.6049e-25
5.2903e-07 2.6476e-25
5.2947e-07 2.6878e-25
5.2991e-07 2.7273e-25
5.3035e-07 2.7637e-25
5.308e-07 2.7954e-25
5.3124e-07 2.8225e-25
5.3168e-07 2.8473e-25
5.3213e-07 2.869e-25
5.3257e-07 2.8869e-25
5.3301e-07 2.8999e-25
5.3346e-07 2.9085e-25
5.339e-07 2.9142e-25
5.3435e-07 2.9168e-25
5.3479e-07 2.9169e-25
5.3524e-07 2.9151e-25
5.3569e-07 2.9123e-25
5.3613e-07 2.91e-25
5.3658e-07 2.9091e-25
5.3703e-07 2.9092e-25
5.3748e-07 2.9122e-25
5.3793e-07 2.92e-25
5.3837e-07 2.932e-25
5.3882e-07 2.9468e-25
5.3927e-07 2.968e-25
5.3972e-07 2.9957e-25
5.4017e-07 3.0271e-25
5.4062e-07 3.0691e-25
5.4107e-07 3.1144e-25
5.4153e-07 3.1457e-25
5.4198e-07 3.1662e-25
5.4243e-07 3.1828e-25
5.4288e-07 3.2048e-25
5.4334e-07 3.2392e-25
5.4379e-07 3.2728e-25
5.4424e-07 3.2876e-25
5.447e-07 3.3066e-25
5.4515e-07 3.3315e-25
5.4561e-07 3.3558e-25
5.4606e-07 3.386e-25
5.4652e-07 3.4014e-25
5.4697e-07 3.4017e-25
5.4743e-07 3.4008e-25
5.4788e-07 3.4115e-25
5.4834e-07 3.4196e-25
5.488e-07 3.4301e-25
5.4926e-07 3.4434e-25
5.4972e-07 3.4572e-25
5.5017e-07 3.4673e-25
5.5063e-07 3.4755e-25
5.5109e-07 3.4879e-25
5.5155e-07 3.4986e-25
5.5201e-07 3.5105e-25
5.5247e-07 3.5259e-25
5.5293e-07 3.5425e-25
5.5339e-07 3.56e-25
5.5386e-07 3.5792e-25
5.5432e-07 3.6001e-25
5.5478e-07 3.6231e-25
5.5524e-07 3.6476e-25
5.5571e-07 3.6744e-25
5.5617e-07 3.7042e-25
5.5663e-07 3.7369e-25
5.571e-07 3.7731e-25
5.5756e-07 3.8123e-25
5.5803e-07 3.8541e-25
5.5849e-07 3.898e-25
5.5896e-07 3.944e-25
5.5943e-07 3.9916e-25
5.5989e-07 4.0412e-25
5.6036e-07 4.091e-25
5.6083e-07 4.1405e-25
5.613e-07 4.1879e-25
5.6176e-07 4.2348e-25
5.6223e-07 4.2821e-25
5.627e-07 4.3266e-25
5.6317e-07 4.3661e-25
5.6364e-07 4.4035e-25
5.6411e-07 4.4413e-25
5.6458e-07 4.4766e-25
5.6505e-07 4.5092e-25
5.6552e-07 4.5394e-25
5.66e-07 4.5721e-25
5.6647e-07 4.6074e-25
5.6694e-07 4.642e-25
5.6741e-07 4.6825e-25
5.6789e-07 4.7364e-25
5.6836e-07 4.804e-25
5.6883e-07 4.8598e-25
5.6931e-07 4.8922e-25
5.6978e-07 4.9144e-25
5.7026e-07 4.9168e-25
5.7074e-07 4.9078e-25
5.7121e-07 4.9233e-25
5.7169e-07 4.9709e-25
5.7216e-07 5.0123e-25
5.7264e-07 5.0269e-25
5.7312e-07 5.0341e-25
5.736e-07 5.0387e-25
5.7408e-07 5.0532e-25
5.7456e-07 5.0593e-25
5.7503e-07 5.0439e-25
5.7551e-07 5.033e-25
5.7599e-07 5.0214e-25
5.7647e-07 4.9943e-25
5.7696e-07 4.9798e-25
5.7744e-07 4.9623e-25
5.7792e-07 4.9276e-25
5.784e-07 4.8951e-25
5.7888e-07 4.8704e-25
5.7937e-07 4.8448e-25
5.7985e-07 4.8136e-25
5.8033e-07 4.7872e-25
5.8082e-07 4.7642e-25
5.813e-07 4.7399e-25
5.8179e-07 4.7201e-25
5.8227e-07 4.6998e-25
5.8276e-07 4.6814e-25
5.8324e-07 4.668e-25
5.8373e-07 4.6564e-25
5.8422e-07 4.644e-25
5.8471e-07 4.6325e-25
5.8519e-07 4.6237e-25
5.8568e-07 4.6235e-25
5.8617e-07 4.6391e-25
5.8666e-07 4.6611e-25
5.8715e-07 4.6864e-25
5.8764e-07 4.7331e-25
5.8813e-07 4.804e-25
5.8862e-07 4.8845e-25
5.8911e-07 4.923e-25
5.896e-07 4.9353e-25
5.9009e-07 4.9369e-25
5.9059e-07 4.9276e-25
5.9108e-07 4.9328e-25
5.9157e-07 4.9745e-25
5.9206e-07 5.0145e-25
5.9256e-07 5.0172e-25
5.9305e-07 4.988e-25
5.9355e-07 5.0127e-25
5.9404e-07 5.1018e-25
5.9454e-07 5.2165e-25
5.9503e-07 5.2465e-25
5.9553e-07 5.2355e-25
5.9603e-07 5.2569e-25
5.9652e-07 5.3026e-25
5.9702e-07 5.3554e-25
5.9752e-07 5.3906e-25
5.9802e-07 5.4118e-25
5.9852e-07 5.439e-25
5.9902e-07 5.4631e-25
5.9952e-07 5.4769e-25
6.0002e-07 5.4798e-25
6.0052e-07 5.481e-25
6.0102e-07 5.4758e-25
6.0152e-07 5.4728e-25
6.0202e-07 5.4659e-25
6.0252e-07 5.4513e-25
6.0303e-07 5.4394e-25
6.0353e-07 5.4167e-25
6.0403e-07 5.3908e-25
6.0454e-07 5.3661e-25
6.0504e-07 5.3378e-25
6.0555e-07 5.3049e-25
6.0605e-07 5.2701e-25
6.0656e-07 5.231e-25
6.0706e-07 5.1902e-25
6.0757e-07 5.1479e-25
6.0808e-07 5.1031e-25
6.0858e-07 5.0574e-25
6.0909e-07 5.0107e-25
6.096e-07 4.9634e-25
6.1011e-07 4.9185e-25
6.1062e-07 4.8791e-25
6.1113e-07 4.8445e-25
6.1164e-07 4.8113e-25
6.1215e-07 4.7775e-25
6.1266e-07 4.7426e-25
6.1317e-07 4.7063e-25
6.1368e-07 4.6702e-25
6.1419e-07 4.6346e-25
6.147e-07 4.5995e-25
6.1522e-07 4.565e-25
6.1573e-07 4.5312e-25
6.1624e-07 4.4978e-25
6.1676e-07 4.4651e-25
6.1727e-07 4.4329e-25
6.1779e-07 4.4021e-25
6.183e-07 4.3725e-25
6.1882e-07 4.3438e-25
6.1933e-07 4.316e-25
6.1985e-07 4.2894e-25
6.2037e-07 4.2636e-25
6.2089e-07 4.2383e-25
6.214e-07 4.2135e-25
6.2192e-07 4.189e-25
6.2244e-07 4.1652e-25
6.2296e-07 4.1416e-25
6.2348e-07 4.1183e-25
6.24e-07 4.0947e-25
6.2452e-07 4.0739e-25
6.2504e-07 4.0543e-25
6.2556e-07 4.0379e-25
6.2609e-07 4.0264e-25
6.2661e-07 4.0198e-25
6.2713e-07 4.0207e-25
6.2765e-07 4.0438e-25
6.2818e-07 4.0427e-25
6.287e-07 3.9895e-25
6.2923e-07 3.9395e-25
6.2975e-07 3.8954e-25
6.3028e-07 3.8445e-25
6.308e-07 3.7984e-25
6.3133e-07 3.7845e-25
6.3185e-07 3.7728e-25
6.3238e-07 3.7424e-25
6.3291e-07 3.6954e-25
6.3344e-07 3.6549e-25
6.3397e-07 3.6177e-25
6.3449e-07 3.5864e-25
6.3502e-07 3.5523e-25
6.3555e-07 3.5161e-25
6.3608e-07 3.4827e-25
6.3661e-07 3.4473e-25
6.3715e-07 3.4169e-25
6.3768e-07 3.3813e-25
6.3821e-07 3.3434e-25
6.3874e-07 3.3125e-25
6.3927e-07 3.2809e-25
6.3981e-07 3.2448e-25
6.4034e-07 3.2101e-25
6.4088e-07 3.1791e-25
6.4141e-07 3.1433e-25
6.4195e-07 3.1106e-25
6.4248e-07 3.0805e-25
6.4302e-07 3.0543e-25
6.4355e-07 3.0356e-25
6.4409e-07 3.0191e-25
6.4463e-07 3.0058e-25
6.4516e-07 2.996e-25
6.457e-07 2.9976e-25
6.4624e-07 3.0096e-25
6.4678e-07 3.0174e-25
6.4732e-07 3.019e-25
6.4786e-07 3.0085e-25
6.484e-07 2.978e-25
6.4894e-07 2.9356e-25
6.4948e-07 2.8829e-25
6.5003e-07 2.8155e-25
6.5057e-07 2.7721e-25
6.5111e-07 2.7794e-25
6.5165e-07 2.8087e-25
6.522e-07 2.7731e-25
6.5274e-07 2.6972e-25
6.5329e-07 2.6595e-25
6.5383e-07 2.6452e-25
6.5438e-07 2.6305e-25
6.5492e-07 2.6231e-25
6.5547e-07 2.609e-25
6.5601e-07 2.5773e-25
6.5656e-07 2.5477e-25
6.5711e-07 2.5154e-25
6.5766e-07 2.4763e-25
6.5821e-07 2.4411e-25
6.5876e-07 2.4092e-25
6.5931e-07 2.3723e-25
6.5986e-07 2.3454e-25
6.6041e-07 2.3172e-25
6.6096e-07 2.28e-25
6.6151e-07 2.248e-25
6.6206e-07 2.2222e-25
6.6261e-07 2.1986e-25
6.6317e-07 2.1773e-25
6.6372e-07 2.1528e-25
6.6427e-07 2.1293e-25
6.6483e-07 2.104e-25
6.6538e-07 2.0747e-25
6.6594e-07 2.0478e-25
6.6649e-07 2.0209e-25
6.6705e-07 1.9929e-25
6.676e-07 1.9648e-25
6.6816e-07 1.9386e-25
6.6872e-07 1.913e-25
6.6928e-07 1.8875e-25
6.6983e-07 1.862e-25
6.7039e-07 1.838e-25
6.7095e-07 1.8138e-25
6.7151e-07 1.7902e-25
6.7207e-07 1.7681e-25
6.7263e-07 1.7463e-25
6.7319e-07 1.7246e-25
6.7376e-07 1.7043e-25
6.7432e-07 1.6849e-25
6.7488e-07 1.6653e-25
6.7544e-07 1.6462e-25
6.7601e-07 1.6277e-25
6.7657e-07 1.6099e-25
6.7714e-07 1.592e-25
6.777e-07 1.5746e-25
6.7827e-07 1.5586e-25
6.7883e-07 1.5427e-25
6.794e-07 1.5271e-25
6.7996e-07 1.5146e-25
6.8053e-07 1.5041e-25
6.811e-07 1.4913e-25
6.8167e-07 1.4823e-25
6.8224e-07 1.476e-25
6.8281e-07 1.4674e-25
6.8338e-07 1.4564e-25
6.8395e-07 1.4495e-25
6.8452e-07 1.4408e-25
6.8509e-07 1.4259e-25
6.8566e-07 1.4137e-25
6.8623e-07 1.4242e-25
6.868e-07 1.4784e-25
6.8738e-07 1.5429e-25
6.8795e-07 1.5006e-25
6.8852e-07 1.4452e-25
6.891e-07 1.4332e-25
6.8967e-07 1.4199e-25
6.9025e-07 1.3888e-25
6.9082e-07 1.3567e-25
6.914e-07 1.3279e-25
6.9198e-07 1.3148e-25
6.9255e-07 1.3203e-25
6.9313e-07 1.3249e-25
6.9371e-07 1.3201e-25
6.9429e-07 1.3057e-25
6.9487e-07 1.2761e-25
6.9545e-07 1.2493e-25
6.9603e-07 1.2207e-25
6.9661e-07 1.1774e-25
6.9719e-07 1.1409e-25
6.9777e-07 1.1283e-25
6.9835e-07 1.1356e-25
6.9894e-07 1.1501e-25
6.9952e-07 1.1456e-25
7.001e-07 1.1349e-25
7.0069e-07 1.1266e-25
7.0127e-07 1.1144e-25
7.0186e-07 1.101e-25
7.0244e-07 1.0861e-25
7.0303e-07 1.056e-25
7.0361e-07 1.0287e-25
7.042e-07 1.0262e-25
7.0479e-07 1.0294e-25
7.0538e-07 1.0265e-25
7.0596e-07 1.0202e-25
7.0655e-07 1.0059e-25
7.0714e-07 9.9356e-26
7.0773e-07 9.8562e-26
7.0832e-07 9.7079e-26
7.0891e-07 9.5723e-26
7.0951e-07 9.5489e-26
7.101e-07 9.56e-26
7.1069e-07 9.4591e-26
7.1128e-07 9.2966e-26
7.1188e-07 9.1799e-26
7.1247e-07 9.2095e-26
7.1306e-07 9.2493e-26
7.1366e-07 9.2252e-26
7.1425e-07 9.2683e-26
7.1485e-07 9.3945e-26
7.1545e-07 9.4769e-26
7.1604e-07 9.6505e-26
7.1664e-07 1.0051e-25
7.1724e-07 1.0475e-25
7.1784e-07 1.0464e-25
7.1844e-07 1.026e-25
7.1904e-07 1.0183e-25
7.1964e-07 1.0131e-25
7.2024e-07 9.9502e-26
7.2084e-07 9.39e-26
7.2144e-07 8.7983e-26
7.2204e-07 8.4883e-26
7.2264e-07 8.4339e-26
7.2324e-07 8.6152e-26
7.2385e-07 8.7931e-26
7.2445e-07 8.7549e-26
7.2506e-07 8.6599e-26
7.2566e-07 8.5866e-26
7.2627e-07 8.491e-26
7.2687e-07 8.3231e-26
7.2748e-07 8.2891e-26
7.2809e-07 8.1155e-26
7.2869e-07 7.8714e-26
7.293e-07 7.8855e-26
7.2991e-07 7.8252e-26
7.3052e-07 7.7723e-26
7.3113e-07 7.7216e-26
7.3174e-07 7.4591e-26
7.3235e-07 7.0877e-26
7.3296e-07 6.9225e-26
7.3357e-07 6.8041e-26
7.3418e-07 6.6304e-26
7.348e-07 6.6524e-26
7.3541e-07 6.6726e-26
7.3602e-07 6.7175e-26
7.3664e-07 6.7256e-26
7.3725e-07 6.5973e-26
7.3787e-07 6.477e-26
7.3848e-07 6.4342e-26
7.391e-07 6.3849e-26
7.3971e-07 6.2879e-26
7.4033e-07 6.1929e-26
7.4095e-07 6.1436e-26
7.4157e-07 6.0988e-26
7.4218e-07 6.0826e-26
7.428e-07 6.0678e-26
7.4342e-07 6.0113e-26
7.4404e-07 6.0205e-26
7.4466e-07 6.0344e-26
7.4529e-07 6.0482e-26
7.4591e-07 6.066e-26
7.4653e-07 6.0482e-26
7.4715e-07 6.0407e-26
7.4778e-07 6.0107e-26
7.484e-07 5.9432e-26
7.4902e-07 5.8617e-26
7.4965e-07 5.7693e-26
7.5027e-07 5.6633e-26
7.509e-07 5.5304e-26
7.5153e-07 5.3749e-26
7.5215e-07 5.2214e-26
7.5278e-07 5.0736e-26
7.5341e-07 4.9437e-26
7.5404e-07 4.8333e-26
7.5467e-07 4.7281e-26
7.553e-07 4.6384e-26
7.5593e-07 4.5689e-26
7.5656e-07 4.5147e-26
7.5719e-07 4.4824e-26
7.5782e-07 4.4799e-26
7.5845e-07 4.5279e-26
7.5908e-07 4.654e-26
7.5972e-07 4.9091e-26
7.6035e-07 5.4702e-26
7.6099e-07 5.5868e-26
7.6162e-07 5.2864e-26
7.6226e-07 5.224e-26
7.6289e-07 5.3085e-26
7.6353e-07 5.3572e-26
7.6417e-07 5.2458e-26
7.648e-07 5.0984e-26
7.6544e-07 4.9386e-26
7.6608e-07 4.7863e-26
7.6672e-07 4.6384e-26
7.6736e-07 4.4941e-26
7.68e-07 4.3767e-26
7.6864e-07 4.3113e-26
7.6928e-07 4.261e-26
7.6992e-07 4.1953e-26
7.7056e-07 4.1318e-26
7.7121e-07 4.1062e-26
7.7185e-07 4.1195e-26
7.7249e-07 4.1556e-26
7.7314e-07 4.1883e-26
7.7378e-07 4.2355e-26
7.7443e-07 4.2886e-26
7.7508e-07 4.3529e-26
7.7572e-07 4.4176e-26
7.7637e-07 4.4812e-26
7.7702e-07 4.5453e-26
7.7766e-07 4.6026e-26
7.7831e-07 4.6452e-26
7.7896e-07 4.6687e-26
7.7961e-07 4.6649e-26
7.8026e-07 4.6278e-26
7.8091e-07 4.5707e-26
7.8157e-07 4.5073e-26
7.8222e-07 4.4307e-26
7.8287e-07 4.3424e-26
7.8352e-07 4.2651e-26
7.8418e-07 4.1995e-26
7.8483e-07 4.1293e-26
7.8549e-07 4.0544e-26
7.8614e-07 4.0418e-26
7.868e-07 4.0614e-26
7.8745e-07 4.0174e-26
7.8811e-07 3.9545e-26
7.8877e-07 3.9762e-26
7.8943e-07 4.0011e-26
7.9008e-07 3.9204e-26
7.9074e-07 3.8047e-26
7.914e-07 3.7256e-26
7.9206e-07 3.6551e-26
7.9272e-07 3.5628e-26
7.9339e-07 3.0188e-26
7.9405e-07 1.6496e-26
7.9471e-07 3.9342e-27
7.9537e-07 -0
7.9604e-07 -0
7.967e-07 -0
7.9736e-07 -0
7.9803e-07 -0
7.987e-07 -0
7.9936e-07 -0
8.0003e-07 -0
8.007e-07 -0
8.0136e-07 -0
8.0203e-07 -0
8.027e-07 -0
8.0337e-07 -0
8.0404e-07 -0
8.0471e-07 -0
8.0538e-07 -0
8.0606e-07 -0
8.0673e-07 -0
8.074e-07 -0
8.0807e-07 -0
8.0875e-07 -0
8.0942e-07 -0
8.101e-07 -0
8.1077e-07 -0
8.1145e-07 -0
8.1213e-07 -0
8.1281e-07 -0
8.1348e-07 -0
8.1416e-07 -0
8.1484e-07 -0
8.1552e-07 -0
8.162e-07 -0
8.1688e-07 -0
8.1756e-07 -0
8.1825e-07 -0
8.1893e-07 -0
8.1961e-07 -0
8.203e-07 -0
8.2098e-07 -0
8.2166e-07 -0
8.2235e-07 -0
8.2304e-07 -0
8.2372e-07 -0
8.2441e-07 -0
8.251e-07 -0
8.2579e-07 -0
8.2647e-07 -0
8.2716e-07 -0
8.2785e-07 -0
8.2854e-07 -0
8.2924e-07 -0
8.2993e-07 -0
8.3062e-07 -0
8.3131e-07 -0
8.3201e-07 -0
8.327e-07 -0
8.334e-07 -0
8.3409e-07 -0
8.3479e-07 -0
8.3548e-07 -0
8.3618e-07 -0
8.3688e-07 -0
8.3758e-07 -0
8.3827e-07 -0
8.3897e-07 -0
8.3967e-07 -0
8.4037e-07 -0
8.4107e-07 -0
8.4178e-07 -0
8.4248e-07 -0
8.4318e-07 -0
8.4388e-07 -0
8.4459e-07 -0
8.4529e-07 -0
8.46e-07 -0
8.467e-07 -0
8.4741e-07 -0
8.4812e-07 -0
8.4883e-07 -0
8.4953e-07 -0
8.5024e-07 -0
8.5095e-07 -0
8.5166e-07 -0
8.5237e-07 -0
8.5308e-07 -0
8.5379e-07 -0
8.5451e-07 -0
8.5522e-07 -0
8.5593e-07 -0
8.5665e-07 -0
8.5736e-07 -0
8.5808e-07 -0
8.5879e-07 -0
8.5951e-07 -0
8.6023e-07 -0
8.6094e-07 -0
8.6166e-07 -0
8.6238e-07 -0
8.631e-07 -0
8.6382e-07 -0
8.6454e-07 -0
8.6526e-07 -0
8.6598e-07 -0
8.6671e-07 -0
8.6743e-07 -0
8.6815e-07 -0
8.6888e-07 -0
8.696e-07 -0
8.7033e-07 -0
8.7105e-07 -0
8.7178e-07 -0
8.7251e-07 -0
8.7324e-07 -0
8.7396e-07 -0
8.7469e-07 -0
8.7542e-07 -0
8.7615e-07 -0
8.7688e-07 -0
8.7762e-07 -0
8.7835e-07 -0
8.7908e-07 -0
8.7981e-07 -0
8.8055e-07 -0
8.8128e-07 -0
8.8202e-07 -0
8.8275e-07 -0
8.8349e-07 -0
8.8423e-07 -0
8.8496e-07 -0
8.857e-07 -0
8.8644e-07 -0
8.8718e-07 -0
8.8792e-07 -0
8.8866e-07 -0
8.894e-07 -0
8.9015e-07 -0
8.9089e-07 -0
8.9163e-07 -0
8.9237e-07 -0
8.9312e-07 -0
8.9386e-07 -0
8.9461e-07 -0
8.9536e-07 -0
8.961e-07 -0
8.9685e-07 -0
8.976e-07 -0
8.9835e-07 -0
8.991e-07 -0
8.9985e-07 -0
9.006e-07 -0
9.0135e-07 -0
9.021e-07 -0
9.0285e-07 -0
9.0361e-07 -0
9.0436e-07 -0
9.0512e-07 -0
9.0587e-07 -0
9.0663e-07 -0
9.0738e-07 -0
9.0814e-07 -0
9.089e-07 -0
9.0966e-07 -0
9.1041e-07 -0
9.1117e-07 -0
9.1193e-07 -0
9.1269e-07 -0
9.1346e-07 -0
9.1422e-07 -0
9.1498e-07 -0
9.1574e-07 -0
9.1651e-07 -0
9.1727e-07 -0
9.1804e-07 -0
9.188e-07 -0
9.1957e-07 -0
9.2034e-07 -0
9.211e-07 -0
9.2187e-07 -0
9.2264e-07 -0
9.2341e-07 -0
9.2418e-07 -0
9.2495e-07 -0
9.2572e-07 -0
9.265e-07 -0
9.2727e-07 -0
9.2804e-07 -0
9.2882e-07 -0
9.2959e-07 -0
9.3037e-07 -0
9.3114e-07 -0
9.3192e-07 -0
9.327e-07 -0
9.3348e-07 -0
9.3426e-07 -0
9.3503e-07 -0
9.3581e-07 -0
9.366e-07 -0
9.3738e-07 -0
9.3816e-07 -0
9.3894e-07 -0
9.3972e-07 -0
9.4051e-07 -0
9.4129e-07 -0
9.4208e-07 -0
9.4286e-07 -0
9.4365e-07 -0
9.4444e-07 -0
9.4523e-07 -0
9.4601e-07 -0
9.468e-07 -0
9.4759e-07 -0
9.4838e-07 -0
9.4918e-07 -0
9.4997e-07 -0
9.5076e-07 -0
9.5155e-07 -0
9.5235e-07 -0
9.5314e-07 -0
9.5394e-07 -0
9.5473e-07 -0
9.5553e-07 -0
9.5633e-07 -0
9.5712e-07 -0
9.5792e-07 -0
9.5872e-07 -0
9.5952e-07 -0
9.6032e-07 -0
9.6112e-07 -0
9.6192e-07 -0
9.6273e-07 -0
9.6353e-07 -0
9.6433e-07 -0
9.6514e-07 -0
9.6594e-07 -0
9.6675e-07 -0
9.6756e-07 -0
9.6836e-07 -0
9.6917e-07 -0
9.6998e-07 -0
9.7079e-07 -0
9.716e-07 -0
9.7241e-07 -0
9.7322e-07 -0
9.7403e-07 -0
9.7484e-07 -0
9.7566e-07 -0
9.7647e-07 -0
9.7729e-07 -0
9.781e-07 -0
9.7892e-07 -0
9.7973e-07 -0
9.8055e-07 -0
9.8137e-07 -0
9.8219e-07 -0
9.8301e-07 -0
9.8383e-07 -0
9.8465e-07 -0
9.8547e-07 -0
9.8629e-07 -0
9.8711e-07 -0
9.8794e-07 -0
9.8876e-07 -0
9.8959e-07 -0
9.9041e-07 -0
9.9124e-07 -0
9.9207e-07 -0
9.9289e-07 -0
9.9372e-07 -0
9.9455e-07 -0
9.9538e-07 -0
9.9621e-07 -0
9.9704e-07 -0
9.9787e-07 -0
9.9871e-07 -0
9.9954e-07 -0
1.0004e-06 -0
1.0012e-06 -0
1.002e-06 -0
1.0029e-06 -0
1.0037e-06 -0
1.0046e-06 -0
1.0054e-06 -0
1.0062e-06 -0
1.0071e-06 -0
1.0079e-06 -0
1.0087e-06 -0
1.0096e-06 -0
1.0104e-06 -0
1.0113e-06 -0
1.0121e-06 -0
1.013e-06 -0
1.0138e-06 -0
1.0147e-06 -0
1.0155e-06 -0
1.0163e-06 -0
1.0172e-06 -0
1.018e-06 -0
1.0189e-06 -0
1.0197e-06 -0
1.0206e-06 -0
1.0214e-06 -0
1.0223e-06 -0
1.0232e-06 -0
1.024e-06 -0
1.0249e-06 -0
1.0257e-06 -0
1.0266e-06 -0
1.0274e-06 -0
1.0283e-06 -0
1.0291e-06 -0
1.03e-06 -0
