2.8e-07 3.8945e-22
2.8023e-07 3.7698e-22
2.8047e-07 3.68e-22
2.807e-07 3.6258e-22
2.8094e-07 3.578e-22
2.8117e-07 3.4771e-22
2.814e-07 3.346e-22
2.8164e-07 3.2436e-22
2.8187e-07 3.1798e-22
2.8211e-07 3.1381e-22
2.8234e-07 3.0815e-22
2.8258e-07 3.0076e-22
2.8282e-07 2.952e-22
2.8305e-07 2.928e-22
2.8329e-07 2.9118e-22
2.8352e-07 2.8328e-22
2.8376e-07 2.7072e-22
2.84e-07 2.6061e-22
2.8423e-07 2.5415e-22
2.8447e-07 2.4954e-22
2.8471e-07 2.4451e-22
2.8495e-07 2.3747e-22
2.8518e-07 2.2945e-22
2.8542e-07 2.234e-22
2.8566e-07 2.199e-22
2.859e-07 2.1688e-22
2.8614e-07 2.1218e-22
2.8638e-07 2.0621e-22
2.8661e-07 2.0047e-22
2.8685e-07 1.9598e-22
2.8709e-07 1.9206e-22
2.8733e-07 1.8638e-22
2.8757e-07 1.7865e-22
2.8781e-07 1.7133e-22
2.8805e-07 1.6568e-22
2.8829e-07 1.6152e-22
2.8853e-07 1.5799e-22
2.8877e-07 1.5416e-22
2.8901e-07 1.5e-22
2.8926e-07 1.4568e-22
2.895e-07 1.4124e-22
2.8974e-07 1.3728e-22
2.8998e-07 1.3397e-22
2.9022e-07 1.309e-22
2.9046e-07 1.2791e-22
2.9071e-07 1.247e-22
2.9095e-07 1.2089e-22
2.9119e-07 1.1652e-22
2.9143e-07 1.1177e-22
2.9168e-07 1.0734e-22
2.9192e-07 1.0376e-22
2.9216e-07 1.0096e-22
2.9241e-07 9.8892e-23
2.9265e-07 9.7027e-23
2.929e-07 9.437e-23
2.9314e-07 9.0854e-23
2.9339e-07 8.712e-23
2.9363e-07 8.3684e-23
2.9388e-07 8.1072e-23
2.9412e-07 7.9227e-23
2.9437e-07 7.7468e-23
2.9461e-07 7.5392e-23
2.9486e-07 7.2975e-23
2.951e-07 7.014e-23
2.9535e-07 6.7136e-23
2.956e-07 6.4602e-23
2.9584e-07 6.2511e-23
2.9609e-07 6.0275e-23
2.9634e-07 5.8204e-23
2.9658e-07 5.6815e-23
2.9683e-07 5.5471e-23
2.9708e-07 5.3529e-23
2.9733e-07 5.1347e-23
2.9757e-07 4.9271e-23
2.9782e-07 4.7391e-23
2.9807e-07 4.581e-23
2.9832e-07 4.45e-23
2.9857e-07 4.3389e-23
2.9882e-07 4.2281e-23
2.9907e-07 4.0793e-23
2.9932e-07 3.8932e-23
2.9957e-07 3.7194e-23
2.9982e-07 3.5943e-23
3.0007e-07 3.5025e-23
3.0032e-07 3.4113e-23
3.0057e-07 3.3085e-23
3.0082e-07 3.1801e-23
3.0107e-07 3.0312e-23
3.0132e-07 2.8996e-23
3.0157e-07 2.8093e-23
3.0182e-07 2.7505e-23
3.0207e-07 2.691e-23
3.0233e-07 2.6058e-23
3.0258e-07 2.4949e-23
3.0283e-07 2.3733e-23
3.0308e-07 2.2649e-23
3.0334e-07 2.1861e-23
3.0359e-07 2.1351e-23
3.0384e-07 2.1026e-23
3.041e-07 2.0629e-23
3.0435e-07 1.9937e-23
3.046e-07 1.9008e-23
3.0486e-07 1.7975e-23
3.0511e-07 1.701e-23
3.0537e-07 1.6307e-23
3.0562e-07 1.592e-23
3.0588e-07 1.5691e-23
3.0613e-07 1.5472e-23
3.0639e-07 1.5128e-23
3.0664e-07 1.4536e-23
3.069e-07 1.3753e-23
3.0715e-07 1.2907e-23
3.0741e-07 1.2185e-23
3.0767e-07 1.1776e-23
3.0792e-07 1.165e-23
3.0818e-07 1.1506e-23
3.0844e-07 1.1208e-23
3.087e-07 1.0931e-23
3.0895e-07 1.0646e-23
3.0921e-07 1.013e-23
3.0947e-07 9.3899e-24
3.0973e-07 8.759e-24
3.0998e-07 8.4883e-24
3.1024e-07 8.4082e-24
3.105e-07 8.2288e-24
3.1076e-07 7.9524e-24
3.1102e-07 7.7547e-24
3.1128e-07 7.6666e-24
3.1154e-07 7.4558e-24
3.118e-07 6.9972e-24
3.1206e-07 6.516e-24
3.1232e-07 6.148e-24
3.1258e-07 5.8478e-24
3.1284e-07 5.6363e-24
3.131e-07 5.5886e-24
3.1336e-07 5.7091e-24
3.1362e-07 5.7583e-24
3.1389e-07 5.487e-24
3.1415e-07 4.9931e-24
3.1441e-07 4.4919e-24
3.1467e-07 4.1548e-24
3.1494e-07 4.0455e-24
3.152e-07 4.1292e-24
3.1546e-07 4.2878e-24
3.1572e-07 4.2219e-24
3.1599e-07 3.8709e-24
3.1625e-07 3.4982e-24
3.1651e-07 3.2223e-24
3.1678e-07 3.103e-24
3.1704e-07 3.152e-24
3.1731e-07 3.254e-24
3.1757e-07 3.3157e-24
3.1784e-07 3.2107e-24
3.181e-07 2.8952e-24
3.1837e-07 2.5157e-24
3.1863e-07 2.2086e-24
3.189e-07 2.0275e-24
3.1917e-07 2.0636e-24
3.1943e-07 2.2964e-24
3.197e-07 2.4967e-24
3.1996e-07 2.5387e-24
3.2023e-07 2.3657e-24
3.205e-07 2.0063e-24
3.2077e-07 1.6418e-24
3.2103e-07 1.3877e-24
3.213e-07 1.2831e-24
3.2157e-07 1.3221e-24
3.2184e-07 1.5455e-24
3.2211e-07 1.8242e-24
3.2238e-07 1.9106e-24
3.2264e-07 1.8595e-24
3.2291e-07 1.6652e-24
3.2318e-07 1.2993e-24
3.2345e-07 9.6135e-25
3.2372e-07 7.7123e-25
3.2399e-07 7.4675e-25
3.2426e-07 8.361e-25
3.2453e-07 1.0116e-24
3.248e-07 1.258e-24
3.2507e-07 1.3493e-24
3.2535e-07 1.2324e-24
3.2562e-07 1.0805e-24
3.2589e-07 8.8352e-25
3.2616e-07 6.6412e-25
3.2643e-07 5.1708e-25
3.2671e-07 4.6227e-25
3.2698e-07 5.1963e-25
3.2725e-07 6.2677e-25
3.2752e-07 7.2709e-25
3.278e-07 8.887e-25
3.2807e-07 9.8305e-25
3.2834e-07 8.3415e-25
3.2862e-07 5.8786e-25
3.2889e-07 4.0552e-25
3.2917e-07 2.9896e-25
3.2944e-07 2.5451e-25
3.2972e-07 2.5284e-25
3.2999e-07 3.1053e-25
3.3027e-07 4.3361e-25
3.3054e-07 5.1889e-25
3.3082e-07 5.552e-25
3.3109e-07 5.984e-25
3.3137e-07 5.5665e-25
3.3165e-07 4.1617e-25
3.3192e-07 2.8506e-25
3.322e-07 2.017e-25
3.3248e-07 1.6039e-25
3.3275e-07 1.6073e-25
3.3303e-07 1.8723e-25
3.3331e-07 2.4323e-25
3.3359e-07 3.4566e-25
3.3387e-07 4.0596e-25
3.3414e-07 3.471e-25
3.3442e-07 2.4815e-25
3.347e-07 1.7946e-25
3.3498e-07 1.3231e-25
3.3526e-07 9.8618e-26
3.3554e-07 8.0515e-26
3.3582e-07 7.6051e-26
3.361e-07 9.266e-26
3.3638e-07 1.305e-25
3.3666e-07 1.6315e-25
3.3694e-07 2.0507e-25
3.3722e-07 2.6299e-25
3.375e-07 2.6592e-25
3.3779e-07 2.0301e-25
3.3807e-07 1.3657e-25
3.3835e-07 9.2028e-26
3.3863e-07 6.5776e-26
3.3891e-07 5.3516e-26
3.392e-07 5.2106e-26
3.3948e-07 5.7633e-26
3.3976e-07 7.7262e-26
3.4005e-07 1.1439e-25
3.4033e-07 1.3339e-25
3.4061e-07 1.1167e-25
3.409e-07 7.6931e-26
3.4118e-07 5.1764e-26
3.4147e-07 3.6509e-26
3.4175e-07 2.8428e-26
3.4204e-07 2.4329e-26
3.4232e-07 2.1339e-26
3.4261e-07 2.0558e-26
3.4289e-07 2.586e-26
3.4318e-07 3.5349e-26
3.4347e-07 4.7427e-26
3.4375e-07 7.2871e-26
3.4404e-07 1.0011e-25
3.4433e-07 9.7221e-26
3.4461e-07 7.1117e-26
3.449e-07 4.7523e-26
3.4519e-07 3.281e-26
3.4548e-07 2.4811e-26
3.4577e-07 2.0098e-26
3.4605e-07 1.6242e-26
3.4634e-07 1.3534e-26
3.4663e-07 1.3597e-26
3.4692e-07 1.9879e-26
3.4721e-07 2.9546e-26
3.475e-07 3.1359e-26
3.4779e-07 2.4132e-26
3.4808e-07 1.6164e-26
3.4837e-07 1.1071e-26
3.4866e-07 8.2207e-27
3.4895e-07 6.5987e-27
3.4924e-07 6.129e-27
3.4953e-07 6.4338e-27
3.4983e-07 6.3938e-27
3.5012e-07 6.1402e-27
3.5041e-07 6.3284e-27
3.507e-07 7.4418e-27
3.5099e-07 1.2875e-26
3.5129e-07 2.3533e-26
3.5158e-07 2.9814e-26
3.5187e-07 2.5593e-26
3.5217e-07 1.7774e-26
3.5246e-07 1.2356e-26
3.5276e-07 8.9536e-27
3.5305e-07 6.4023e-27
3.5334e-07 4.5174e-27
3.5364e-07 3.1989e-27
3.5393e-07 2.2668e-27
3.5423e-07 1.8216e-27
3.5452e-07 2.0909e-27
3.5482e-07 3.0002e-27
3.5512e-07 3.6072e-27
3.5541e-07 3.1365e-27
3.5571e-07 2.144e-27
3.5601e-07 1.3933e-27
3.563e-07 1.1005e-27
3.566e-07 1.273e-27
3.569e-07 1.4793e-27
3.572e-07 1.335e-27
3.5749e-07 1.0702e-27
3.5779e-07 8.3494e-28
3.5809e-07 5.9261e-28
3.5839e-07 4.461e-28
3.5869e-07 5.5561e-28
3.5899e-07 1.4309e-27
3.5929e-07 3.2976e-27
3.5959e-07 4.8047e-27
3.5989e-07 4.7419e-27
3.6019e-07 3.7654e-27
3.6049e-07 2.7373e-27
3.6079e-07 1.9125e-27
3.6109e-07 1.3352e-27
3.6139e-07 9.2214e-28
3.6169e-07 6.5136e-28
3.6199e-07 5.1696e-28
3.623e-07 4.5955e-28
3.626e-07 3.8148e-28
3.629e-07 2.9882e-28
3.632e-07 3.0171e-28
3.6351e-07 3.4876e-28
3.6381e-07 3.1857e-28
3.6411e-07 2.3314e-28
3.6442e-07 2.6379e-28
3.6472e-07 3.8722e-28
3.6502e-07 4.1118e-28
3.6533e-07 3.4436e-28
3.6563e-07 2.7903e-28
3.6594e-07 2.1059e-28
3.6624e-07 1.5505e-28
3.6655e-07 1.2347e-28
3.6686e-07 9.7896e-29
3.6716e-07 7.5761e-29
3.6747e-07 6.1483e-29
3.6777e-07 6.1768e-29
3.6808e-07 8.0073e-29
3.6839e-07 1.083e-28
3.687e-07 1.241e-28
3.69e-07 1.1614e-28
3.6931e-07 9.5972e-29
3.6962e-07 7.5505e-29
3.6993e-07 5.7388e-29
3.7024e-07 4.0439e-29
3.7054e-07 2.6601e-29
3.7085e-07 2.0765e-29
3.7116e-07 2.0322e-29
3.7147e-07 2.0788e-29
3.7178e-07 2.1716e-29
3.7209e-07 2.3002e-29
3.724e-07 2.472e-29
3.7271e-07 2.6848e-29
3.7302e-07 2.9782e-29
3.7334e-07 4.8572e-29
3.7365e-07 7.6224e-29
3.7396e-07 8.7868e-29
3.7427e-07 1.0117e-28
3.7458e-07 9.503e-29
3.749e-07 7.0767e-28
3.7521e-07 5.2218e-27
3.7552e-07 9.4775e-27
3.7583e-07 7.0015e-27
3.7615e-07 4.0069e-27
3.7646e-07 2.9775e-27
3.7678e-07 1.9018e-27
3.7709e-07 1.6553e-27
3.7741e-07 1.2008e-27
3.7772e-07 6.3308e-28
3.7804e-07 3.3882e-28
3.7835e-07 1.6053e-28
3.7867e-07 1.1558e-28
3.7898e-07 8.5725e-29
3.793e-07 7.3438e-29
3.7961e-07 7.9026e-29
3.7993e-07 8.3669e-29
3.8025e-07 8.6852e-29
3.8057e-07 9.0262e-29
3.8088e-07 9.4222e-29
3.812e-07 9.7824e-29
3.8152e-07 1.0015e-28
3.8184e-07 1.0151e-28
3.8216e-07 1.0308e-28
3.8247e-07 1.0444e-28
3.8279e-07 1.0443e-28
3.8311e-07 1.0404e-28
3.8343e-07 1.0297e-28
3.8375e-07 9.9274e-29
3.8407e-07 9.4197e-29
3.8439e-07 8.9419e-29
3.8471e-07 8.477e-29
3.8503e-07 8.0973e-29
3.8536e-07 7.7918e-29
3.8568e-07 7.4951e-29
3.86e-07 7.227e-29
3.8632e-07 7.9194e-29
3.8664e-07 1.157e-28
3.8697e-07 1.5905e-28
3.8729e-07 2.415e-28
3.8761e-07 4.8625e-28
3.8793e-07 7.0204e-28
3.8826e-07 6.1874e-28
3.8858e-07 4.7323e-28
3.8891e-07 7.5662e-28
3.8923e-07 1.2575e-27
3.8956e-07 1.279e-27
3.8988e-07 1.1547e-27
3.9021e-07 1.2985e-27
3.9053e-07 1.2284e-27
3.9086e-07 9.566e-28
3.9118e-07 8.9761e-28
3.9151e-07 1.0171e-27
3.9184e-07 1.1493e-27
3.9216e-07 1.1177e-27
3.9249e-07 9.0272e-28
3.9282e-07 7.25e-28
3.9315e-07 6.0452e-28
3.9347e-07 5.4654e-28
3.938e-07 6.0371e-28
3.9413e-07 6.4959e-28
3.9446e-07 6.7621e-28
3.9479e-07 6.6725e-28
3.9512e-07 6.1967e-28
3.9545e-07 6.0398e-28
3.9578e-07 5.5233e-28
3.9611e-07 4.9411e-28
3.9644e-07 4.8683e-28
3.9677e-07 5.0037e-28
3.971e-07 5.0952e-28
3.9743e-07 5.1326e-28
3.9776e-07 4.6963e-28
3.9809e-07 3.6595e-28
3.9843e-07 3.2072e-28
3.9876e-07 3.8691e-28
3.9909e-07 4.6752e-28
3.9942e-07 4.6817e-28
3.9976e-07 4.204e-28
4.0009e-07 4.0348e-28
4.0042e-07 4.4067e-28
4.0076e-07 4.7961e-28
4.0109e-07 4.9218e-28
4.0143e-07 5.1431e-28
4.0176e-07 5.5661e-28
4.021e-07 5.9638e-28
4.0243e-07 6.1676e-28
4.0277e-07 6.161e-28
4.031e-07 5.9867e-28
4.0344e-07 5.7642e-28
4.0378e-07 5.684e-28
4.0411e-07 5.7385e-28
4.0445e-07 5.7424e-28
4.0479e-07 5.6915e-28
4.0513e-07 5.7403e-28
4.0546e-07 5.9934e-28
4.058e-07 6.4391e-28
4.0614e-07 6.9935e-28
4.0648e-07 7.7206e-28
4.0682e-07 8.7857e-28
4.0716e-07 1.011e-27
4.075e-07 1.1441e-27
4.0784e-07 1.2659e-27
4.0818e-07 1.3717e-27
4.0852e-07 1.4561e-27
4.0886e-07 1.529e-27
4.092e-07 1.6017e-27
4.0954e-07 1.6585e-27
4.0988e-07 1.6844e-27
4.1023e-07 1.6917e-27
4.1057e-07 1.6968e-27
4.1091e-07 1.6986e-27
4.1125e-07 1.6913e-27
4.116e-07 1.6728e-27
4.1194e-07 1.6348e-27
4.1228e-07 1.5697e-27
4.1263e-07 1.4868e-27
4.1297e-07 1.4124e-27
4.1332e-07 1.3736e-27
4.1366e-07 1.3894e-27
4.1401e-07 1.4599e-27
4.1435e-07 1.561e-27
4.147e-07 1.6801e-27
4.1504e-07 1.8228e-27
4.1539e-07 1.9798e-27
4.1574e-07 2.1333e-27
4.1608e-07 2.2712e-27
4.1643e-07 2.3943e-27
4.1678e-07 2.5059e-27
4.1712e-07 2.601e-27
4.1747e-07 2.6766e-27
4.1782e-07 2.7226e-27
4.1817e-07 2.722e-27
4.1852e-07 2.6747e-27
4.1887e-07 2.6182e-27
4.1922e-07 2.5908e-27
4.1957e-07 2.5965e-27
4.1992e-07 2.6332e-27
4.2027e-07 2.6909e-27
4.2062e-07 2.7772e-27
4.2097e-07 2.9279e-27
4.2132e-07 3.1486e-27
4.2167e-07 3.4017e-27
4.2202e-07 3.6648e-27
4.2238e-07 3.9573e-27
4.2273e-07 4.2902e-27
4.2308e-07 4.6274e-27
4.2343e-07 4.9403e-27
4.2379e-07 5.2492e-27
4.2414e-07 5.5669e-27
4.2449e-07 5.8657e-27
4.2485e-07 6.121e-27
4.252e-07 6.3235e-27
4.2556e-07 6.4418e-27
4.2591e-07 6.4521e-27
4.2627e-07 6.3941e-27
4.2662e-07 6.321e-27
4.2698e-07 6.2238e-27
4.2733e-07 6.0725e-27
4.2769e-07 5.8889e-27
4.2805e-07 5.7119e-27
4.2841e-07 5.5637e-27
4.2876e-07 5.456e-27
4.2912e-07 5.3926e-27
4.2948e-07 5.3782e-27
4.2984e-07 5.4406e-27
4.302e-07 5.5891e-27
4.3055e-07 5.8172e-27
4.3091e-07 6.1216e-27
4.3127e-07 6.4851e-27
4.3163e-07 6.8668e-27
4.3199e-07 7.2271e-27
4.3235e-07 7.546e-27
4.3271e-07 7.8017e-27
4.3307e-07 7.9872e-27
4.3344e-07 8.1161e-27
4.338e-07 8.1673e-27
4.3416e-07 8.1194e-27
4.3452e-07 8.0315e-27
4.3488e-07 7.9798e-27
4.3525e-07 7.9662e-27
4.3561e-07 7.9649e-27
4.3597e-07 8.0014e-27
4.3634e-07 8.1241e-27
4.367e-07 8.3407e-27
4.3707e-07 8.6376e-27
4.3743e-07 9.0289e-27
4.3779e-07 9.5204e-27
4.3816e-07 1.0118e-26
4.3853e-07 1.0837e-26
4.3889e-07 1.1625e-26
4.3926e-07 1.2374e-26
4.3962e-07 1.3095e-26
4.3999e-07 1.384e-26
4.4036e-07 1.4575e-26
4.4073e-07 1.5298e-26
4.4109e-07 1.6045e-26
4.4146e-07 1.6727e-26
4.4183e-07 1.7308e-26
4.422e-07 1.7887e-26
4.4257e-07 1.8484e-26
4.4294e-07 1.8766e-26
4.4331e-07 1.8555e-26
4.4368e-07 1.8192e-26
4.4405e-07 1.7919e-26
4.4442e-07 1.7614e-26
4.4479e-07 1.7183e-26
4.4516e-07 1.6631e-26
4.4553e-07 1.6039e-26
4.459e-07 1.5503e-26
4.4627e-07 1.5046e-26
4.4664e-07 1.4758e-26
4.4702e-07 1.4714e-26
4.4739e-07 1.4896e-26
4.4776e-07 1.5279e-26
4.4814e-07 1.5805e-26
4.4851e-07 1.6429e-26
4.4889e-07 1.7138e-26
4.4926e-07 1.7859e-26
4.4963e-07 1.854e-26
4.5001e-07 1.9178e-26
4.5038e-07 1.9713e-26
4.5076e-07 2.007e-26
4.5114e-07 2.0191e-26
4.5151e-07 2.0155e-26
4.5189e-07 2.0101e-26
4.5227e-07 2.0093e-26
4.5264e-07 2.0111e-26
4.5302e-07 2.0056e-26
4.534e-07 1.986e-26
4.5378e-07 1.974e-26
4.5416e-07 2.0074e-26
4.5454e-07 2.0915e-26
4.5491e-07 2.1959e-26
4.5529e-07 2.2755e-26
4.5567e-07 2.3121e-26
4.5605e-07 2.3512e-26
4.5643e-07 2.4377e-26
4.5682e-07 2.565e-26
4.572e-07 2.7135e-26
4.5758e-07 2.8726e-26
4.5796e-07 3.0337e-26
4.5834e-07 3.1919e-26
4.5872e-07 3.3462e-26
4.5911e-07 3.499e-26
4.5949e-07 3.6532e-26
4.5987e-07 3.8029e-26
4.6026e-07 3.9393e-26
4.6064e-07 4.0517e-26
4.6102e-07 4.1327e-26
4.6141e-07 4.1803e-26
4.6179e-07 4.194e-26
4.6218e-07 4.1776e-26
4.6256e-07 4.1384e-26
4.6295e-07 4.0744e-26
4.6334e-07 3.9791e-26
4.6372e-07 3.8614e-26
4.6411e-07 3.7395e-26
4.645e-07 3.626e-26
4.6489e-07 3.5253e-26
4.6527e-07 3.4419e-26
4.6566e-07 3.3887e-26
4.6605e-07 3.3774e-26
4.6644e-07 3.4126e-26
4.6683e-07 3.4821e-26
4.6722e-07 3.576e-26
4.6761e-07 3.6786e-26
4.68e-07 3.792e-26
4.6839e-07 3.92e-26
4.6878e-07 4.051e-26
4.6917e-07 4.1718e-26
4.6956e-07 4.2785e-26
4.6995e-07 4.3447e-26
4.7034e-07 4.3629e-26
4.7074e-07 4.3753e-26
4.7113e-07 4.3773e-26
4.7152e-07 4.3585e-26
4.7192e-07 4.345e-26
4.7231e-07 4.3449e-26
4.727e-07 4.3511e-26
4.731e-07 4.3675e-26
4.7349e-07 4.4051e-26
4.7389e-07 4.4563e-26
4.7428e-07 4.5348e-26
4.7468e-07 4.6411e-26
4.7507e-07 4.7743e-26
4.7547e-07 4.9361e-26
4.7587e-07 5.1283e-26
4.7626e-07 5.3433e-26
4.7666e-07 5.5762e-26
4.7706e-07 5.8256e-26
4.7746e-07 6.0883e-26
4.7786e-07 6.3621e-26
4.7825e-07 6.6425e-26
4.7865e-07 6.9303e-26
4.7905e-07 7.2259e-26
4.7945e-07 7.5209e-26
4.7985e-07 7.8026e-26
4.8025e-07 8.0646e-26
4.8065e-07 8.3064e-26
4.8105e-07 8.5186e-26
4.8146e-07 8.6822e-26
4.8186e-07 8.7863e-26
4.8226e-07 8.8338e-26
4.8266e-07 8.8307e-26
4.8306e-07 8.7843e-26
4.8347e-07 8.7038e-26
4.8387e-07 8.594e-26
4.8427e-07 8.4766e-26
4.8468e-07 8.367e-26
4.8508e-07 8.2359e-26
4.8549e-07 8.071e-26
4.8589e-07 7.8935e-26
4.863e-07 7.7601e-26
4.867e-07 7.688e-26
4.8711e-07 7.6654e-26
4.8752e-07 7.6775e-26
4.8792e-07 7.7291e-26
4.8833e-07 7.8142e-26
4.8874e-07 7.9415e-26
4.8914e-07 8.0894e-26
4.8955e-07 8.2169e-26
4.8996e-07 8.3374e-26
4.9037e-07 8.4682e-26
4.9078e-07 8.586e-26
4.9119e-07 8.6781e-26
4.916e-07 8.7503e-26
4.9201e-07 8.8051e-26
4.9242e-07 8.8454e-26
4.9283e-07 8.873e-26
4.9324e-07 8.8947e-26
4.9365e-07 8.9179e-26
4.9406e-07 8.9533e-26
4.9448e-07 9.0005e-26
4.9489e-07 9.0593e-26
4.953e-07 9.1433e-26
4.9571e-07 9.2633e-26
4.9613e-07 9.4189e-26
4.9654e-07 9.6078e-26
4.9696e-07 9.8294e-26
4.9737e-07 1.0084e-25
4.9779e-07 1.038e-25
4.982e-07 1.0718e-25
4.9862e-07 1.1085e-25
4.9903e-07 1.1477e-25
4.9945e-07 1.1893e-25
4.9986e-07 1.2332e-25
5.0028e-07 1.2801e-25
5.007e-07 1.3273e-25
5.0112e-07 1.3786e-25
5.0154e-07 1.4357e-25
5.0195e-07 1.486e-25
5.0237e-07 1.5302e-25
5.0279e-07 1.5789e-25
5.0321e-07 1.6379e-25
5.0363e-07 1.7022e-25
5.0405e-07 1.7417e-25
5.0447e-07 1.7474e-25
5.0489e-07 1.7387e-25
5.0531e-07 1.7409e-25
5.0573e-07 1.7567e-25
5.0616e-07 1.7557e-25
5.0658e-07 1.748e-25
5.07e-07 1.7483e-25
5.0742e-07 1.7403e-25
5.0785e-07 1.7185e-25
5.0827e-07 1.6957e-25
5.087e-07 1.6736e-25
5.0912e-07 1.6553e-25
5.0954e-07 1.642e-25
5.0997e-07 1.6249e-25
5.104e-07 1.6096e-25
5.1082e-07 1.6003e-25
5.1125e-07 1.5973e-25
5.1167e-07 1.5977e-25
5.121e-07 1.6038e-25
5.1253e-07 1.6129e-25
5.1296e-07 1.6228e-25
5.1338e-07 1.6352e-25
5.1381e-07 1.6489e-25
5.1424e-07 1.6643e-25
5.1467e-07 1.6809e-25
5.151e-07 1.6971e-25
5.1553e-07 1.7125e-25
5.1596e-07 1.7268e-25
5.1639e-07 1.7404e-25
5.1682e-07 1.7534e-25
5.1725e-07 1.7659e-25
5.1768e-07 1.779e-25
5.1811e-07 1.7927e-25
5.1855e-07 1.8068e-25
5.1898e-07 1.8213e-25
5.1941e-07 1.8369e-25
5.1984e-07 1.8537e-25
5.2028e-07 1.8723e-25
5.2071e-07 1.8931e-25
5.2115e-07 1.9166e-25
5.2158e-07 1.9431e-25
5.2202e-07 1.9729e-25
5.2245e-07 2.0055e-25
5.2289e-07 2.0422e-25
5.2332e-07 2.0837e-25
5.2376e-07 2.1306e-25
5.242e-07 2.18e-25
5.2464e-07 2.225e-25
5.2507e-07 2.2648e-25
5.2551e-07 2.3032e-25
5.2595e-07 2.3429e-25
5.2639e-07 2.3917e-25
5.2683e-07 2.4447e-25
5.2727e-07 2.492e-25
5.2771e-07 2.5329e-25
5.2815e-07 2.5754e-25
5.2859e-07 2.6209e-25
5.2903e-07 2.664e-25
5.2947e-07 2.7043e-25
5.2991e-07 2.7437e-25
5.3035e-07 2.7798e-25
5.308e-07 2.8107e-25
5.3124e-07 2.8367e-25
5.3168e-07 2.8605e-25
5.3213e-07 2.8817e-25
5.3257e-07 2.899e-25
5.3301e-07 2.9107e-25
5.3346e-07 2.9182e-25
5.339e-07 2.9231e-25
5.3435e-07 2.9254e-25
5.3479e-07 2.9256e-25
5.3524e-07 2.924e-25
5.3569e-07 2.9209e-25
5.3613e-07 2.9186e-25
5.3658e-07 2.918e-25
5.3703e-07 2.9184e-25
5.3748e-07 2.9223e-25
5.3793e-07 2.9315e-25
5.3837e-07 2.9451e-25
5.3882e-07 2.9617e-25
5.3927e-07 2.9854e-25
5.3972e-07 3.0162e-25
5.4017e-07 3.051e-25
5.4062e-07 3.0975e-25
5.4107e-07 3.1475e-25
5.4153e-07 3.1808e-25
5.4198e-07 3.2004e-25
5.4243e-07 3.2147e-25
5.4288e-07 3.235e-25
5.4334e-07 3.271e-25
5.4379e-07 3.3067e-25
5.4424e-07 3.3199e-25
5.447e-07 3.3374e-25
5.4515e-07 3.3621e-25
5.4561e-07 3.387e-25
5.4606e-07 3.4199e-25
5.4652e-07 3.4348e-25
5.4697e-07 3.4304e-25
5.4743e-07 3.4258e-25
5.4788e-07 3.4349e-25
5.4834e-07 3.4411e-25
5.488e-07 3.4496e-25
5.4926e-07 3.4627e-25
5.4972e-07 3.4769e-25
5.5017e-07 3.4855e-25
5.5063e-07 3.4918e-25
5.5109e-07 3.5031e-25
5.5155e-07 3.5121e-25
5.5201e-07 3.5227e-25
5.5247e-07 3.5376e-25
5.5293e-07 3.5536e-25
5.5339e-07 3.5704e-25
5.5386e-07 3.589e-25
5.5432e-07 3.6096e-25
5.5478e-07 3.6329e-25
5.5524e-07 3.658e-25
5.5571e-07 3.685e-25
5.5617e-07 3.7149e-25
5.5663e-07 3.7481e-25
5.571e-07 3.7852e-25
5.5756e-07 3.8253e-25
5.5803e-07 3.8679e-25
5.5849e-07 3.9126e-25
5.5896e-07 3.9593e-25
5.5943e-07 4.0076e-25
5.5989e-07 4.058e-25
5.6036e-07 4.1088e-25
5.6083e-07 4.1589e-25
5.613e-07 4.2066e-25
5.6176e-07 4.2535e-25
5.6223e-07 4.301e-25
5.627e-07 4.3454e-25
5.6317e-07 4.384e-25
5.6364e-07 4.4207e-25
5.6411e-07 4.4587e-25
5.6458e-07 4.4939e-25
5.6505e-07 4.5265e-25
5.6552e-07 4.5564e-25
5.66e-07 4.5895e-25
5.6647e-07 4.6265e-25
5.6694e-07 4.6638e-25
5.6741e-07 4.7081e-25
5.6789e-07 4.7695e-25
5.6836e-07 4.8477e-25
5.6883e-07 4.9109e-25
5.6931e-07 4.9446e-25
5.6978e-07 4.9648e-25
5.7026e-07 4.9611e-25
5.7074e-07 4.9433e-25
5.7121e-07 4.9565e-25
5.7169e-07 5.0104e-25
5.7216e-07 5.0576e-25
5.7264e-07 5.0718e-25
5.7312e-07 5.0776e-25
5.736e-07 5.0811e-25
5.7408e-07 5.0972e-25
5.7456e-07 5.1039e-25
5.7503e-07 5.0864e-25
5.7551e-07 5.0753e-25
5.7599e-07 5.0632e-25
5.7647e-07 5.0336e-25
5.7696e-07 5.0187e-25
5.7744e-07 5.0007e-25
5.7792e-07 4.9624e-25
5.784e-07 4.9274e-25
5.7888e-07 4.9025e-25
5.7937e-07 4.876e-25
5.7985e-07 4.8429e-25
5.8033e-07 4.8156e-25
5.8082e-07 4.7923e-25
5.813e-07 4.7684e-25
5.8179e-07 4.749e-25
5.8227e-07 4.7284e-25
5.8276e-07 4.7103e-25
5.8324e-07 4.6979e-25
5.8373e-07 4.6874e-25
5.8422e-07 4.6761e-25
5.8471e-07 4.6656e-25
5.8519e-07 4.6573e-25
5.8568e-07 4.6599e-25
5.8617e-07 4.6809e-25
5.8666e-07 4.7089e-25
5.8715e-07 4.7412e-25
5.8764e-07 4.799e-25
5.8813e-07 4.8884e-25
5.8862e-07 4.9872e-25
5.8911e-07 5.0338e-25
5.896e-07 5.045e-25
5.9009e-07 5.0445e-25
5.9059e-07 5.0294e-25
5.9108e-07 5.0305e-25
5.9157e-07 5.0795e-25
5.9206e-07 5.1273e-25
5.9256e-07 5.125e-25
5.9305e-07 5.0815e-25
5.9355e-07 5.1037e-25
5.9404e-07 5.2066e-25
5.9454e-07 5.3391e-25
5.9503e-07 5.361e-25
5.9553e-07 5.3366e-25
5.9603e-07 5.3533e-25
5.9652e-07 5.3993e-25
5.9702e-07 5.4556e-25
5.9752e-07 5.4875e-25
5.9802e-07 5.5014e-25
5.9852e-07 5.5246e-25
5.9902e-07 5.5465e-25
5.9952e-07 5.5559e-25
6.0002e-07 5.5527e-25
6.0052e-07 5.5473e-25
6.0102e-07 5.5357e-25
6.0152e-07 5.5283e-25
6.0202e-07 5.5169e-25
6.0252e-07 5.4978e-25
6.0303e-07 5.4834e-25
6.0353e-07 5.4564e-25
6.0403e-07 5.4268e-25
6.0454e-07 5.4004e-25
6.0504e-07 5.3703e-25
6.0555e-07 5.3358e-25
6.0605e-07 5.2996e-25
6.0656e-07 5.2588e-25
6.0706e-07 5.2167e-25
6.0757e-07 5.1739e-25
6.0808e-07 5.1283e-25
6.0858e-07 5.082e-25
6.0909e-07 5.0348e-25
6.096e-07 4.9873e-25
6.1011e-07 4.9418e-25
6.1062e-07 4.9042e-25
6.1113e-07 4.8784e-25
6.1164e-07 4.8585e-25
6.1215e-07 4.8371e-25
6.1266e-07 4.8122e-25
6.1317e-07 4.7844e-25
6.1368e-07 4.7562e-25
6.1419e-07 4.7278e-25
6.147e-07 4.6987e-25
6.1522e-07 4.669e-25
6.1573e-07 4.6392e-25
6.1624e-07 4.6097e-25
6.1676e-07 4.5802e-25
6.1727e-07 4.5509e-25
6.1779e-07 4.5225e-25
6.183e-07 4.4955e-25
6.1882e-07 4.4688e-25
6.1933e-07 4.4429e-25
6.1985e-07 4.4184e-25
6.2037e-07 4.3944e-25
6.2089e-07 4.3699e-25
6.214e-07 4.346e-25
6.2192e-07 4.3228e-25
6.2244e-07 4.2999e-25
6.2296e-07 4.277e-25
6.2348e-07 4.2548e-25
6.24e-07 4.2327e-25
6.2452e-07 4.2138e-25
6.2504e-07 4.1967e-25
6.2556e-07 4.1838e-25
6.2609e-07 4.1777e-25
6.2661e-07 4.1777e-25
6.2713e-07 4.188e-25
6.2765e-07 4.2278e-25
6.2818e-07 4.2406e-25
6.287e-07 4.1784e-25
6.2923e-07 4.1202e-25
6.2975e-07 4.0747e-25
6.3028e-07 4.0178e-25
6.308e-07 3.9654e-25
6.3133e-07 3.9532e-25
6.3185e-07 3.9465e-25
6.3238e-07 3.9134e-25
6.3291e-07 3.8614e-25
6.3344e-07 3.8178e-25
6.3397e-07 3.7791e-25
6.3449e-07 3.7472e-25
6.3502e-07 3.7121e-25
6.3555e-07 3.6743e-25
6.3608e-07 3.6408e-25
6.3661e-07 3.6051e-25
6.3715e-07 3.5749e-25
6.3768e-07 3.5379e-25
6.3821e-07 3.4984e-25
6.3874e-07 3.4681e-25
6.3927e-07 3.4368e-25
6.3981e-07 3.3999e-25
6.4034e-07 3.3658e-25
6.4088e-07 3.3349e-25
6.4141e-07 3.298e-25
6.4195e-07 3.2648e-25
6.4248e-07 3.2346e-25
6.4302e-07 3.2096e-25
6.4355e-07 3.1935e-25
6.4409e-07 3.1795e-25
6.4463e-07 3.1687e-25
6.4516e-07 3.1624e-25
6.457e-07 3.1715e-25
6.4624e-07 3.193e-25
6.4678e-07 3.21e-25
6.4732e-07 3.222e-25
6.4786e-07 3.2166e-25
6.484e-07 3.1835e-25
6.4894e-07 3.1366e-25
6.4948e-07 3.0781e-25
6.5003e-07 2.9989e-25
6.5057e-07 2.9472e-25
6.5111e-07 2.9641e-25
6.5165e-07 3.0085e-25
6.522e-07 2.9685e-25
6.5274e-07 2.8779e-25
6.5329e-07 2.8358e-25
6.5383e-07 2.8241e-25
6.5438e-07 2.8119e-25
6.5492e-07 2.8096e-25
6.5547e-07 2.7962e-25
6.5601e-07 2.7597e-25
6.5656e-07 2.7273e-25
6.5711e-07 2.6937e-25
6.5766e-07 2.6518e-25
6.5821e-07 2.6119e-25
6.5876e-07 2.576e-25
6.5931e-07 2.5352e-25
6.5986e-07 2.5064e-25
6.6041e-07 2.4762e-25
6.6096e-07 2.4345e-25
6.6151e-07 2.3987e-25
6.6206e-07 2.3708e-25
6.6261e-07 2.3466e-25
6.6317e-07 2.3255e-25
6.6372e-07 2.3006e-25
6.6427e-07 2.2769e-25
6.6483e-07 2.2508e-25
6.6538e-07 2.2203e-25
6.6594e-07 2.1921e-25
6.6649e-07 2.1639e-25
6.6705e-07 2.1345e-25
6.676e-07 2.1052e-25
6.6816e-07 2.0784e-25
6.6872e-07 2.0523e-25
6.6928e-07 2.0258e-25
6.6983e-07 1.9992e-25
6.7039e-07 1.9745e-25
6.7095e-07 1.9494e-25
6.7151e-07 1.9256e-25
6.7207e-07 1.9043e-25
6.7263e-07 1.883e-25
6.7319e-07 1.8612e-25
6.7376e-07 1.8406e-25
6.7432e-07 1.8213e-25
6.7488e-07 1.8019e-25
6.7544e-07 1.7834e-25
6.7601e-07 1.7659e-25
6.7657e-07 1.749e-25
6.7714e-07 1.7311e-25
6.777e-07 1.7132e-25
6.7827e-07 1.6982e-25
6.7883e-07 1.6838e-25
6.794e-07 1.6686e-25
6.7996e-07 1.6566e-25
6.8053e-07 1.6469e-25
6.811e-07 1.6343e-25
6.8167e-07 1.6263e-25
6.8224e-07 1.6218e-25
6.8281e-07 1.6139e-25
6.8338e-07 1.6032e-25
6.8395e-07 1.5982e-25
6.8452e-07 1.5911e-25
6.8509e-07 1.5762e-25
6.8566e-07 1.5655e-25
6.8623e-07 1.5859e-25
6.868e-07 1.6643e-25
6.8738e-07 1.7538e-25
6.8795e-07 1.706e-25
6.8852e-07 1.6374e-25
6.891e-07 1.6266e-25
6.8967e-07 1.6144e-25
6.9025e-07 1.5794e-25
6.9082e-07 1.5419e-25
6.914e-07 1.5087e-25
6.9198e-07 1.4959e-25
6.9255e-07 1.5078e-25
6.9313e-07 1.522e-25
6.9371e-07 1.5257e-25
6.9429e-07 1.5163e-25
6.9487e-07 1.4824e-25
6.9545e-07 1.4502e-25
6.9603e-07 1.4184e-25
6.9661e-07 1.3646e-25
6.9719e-07 1.3178e-25
6.9777e-07 1.3047e-25
6.9835e-07 1.3211e-25
6.9894e-07 1.348e-25
6.9952e-07 1.3462e-25
7.001e-07 1.3357e-25
7.0069e-07 1.3276e-25
7.0127e-07 1.3148e-25
7.0186e-07 1.3025e-25
7.0244e-07 1.2885e-25
7.0303e-07 1.2535e-25
7.0361e-07 1.2184e-25
7.042e-07 1.2162e-25
7.0479e-07 1.222e-25
7.0538e-07 1.2209e-25
7.0596e-07 1.2147e-25
7.0655e-07 1.1967e-25
7.0714e-07 1.1815e-25
7.0773e-07 1.1736e-25
7.0832e-07 1.1582e-25
7.0891e-07 1.1433e-25
7.0951e-07 1.1426e-25
7.101e-07 1.1457e-25
7.1069e-07 1.1336e-25
7.1128e-07 1.1132e-25
7.1188e-07 1.0993e-25
7.1247e-07 1.1047e-25
7.1306e-07 1.111e-25
7.1366e-07 1.1096e-25
7.1425e-07 1.117e-25
7.1485e-07 1.1354e-25
7.1545e-07 1.1489e-25
7.1604e-07 1.1765e-25
7.1664e-07 1.2396e-25
7.1724e-07 1.3101e-25
7.1784e-07 1.3199e-25
7.1844e-07 1.2952e-25
7.1904e-07 1.2898e-25
7.1964e-07 1.2885e-25
7.2024e-07 1.2698e-25
7.2084e-07 1.1923e-25
7.2144e-07 1.107e-25
7.2204e-07 1.0667e-25
7.2264e-07 1.066e-25
7.2324e-07 1.1002e-25
7.2385e-07 1.134e-25
7.2445e-07 1.1336e-25
7.2506e-07 1.1238e-25
7.2566e-07 1.1169e-25
7.2627e-07 1.1061e-25
7.2687e-07 1.0844e-25
7.2748e-07 1.0868e-25
7.2809e-07 1.0684e-25
7.2869e-07 1.0364e-25
7.293e-07 1.0444e-25
7.2991e-07 1.0384e-25
7.3052e-07 1.0328e-25
7.3113e-07 1.0289e-25
7.3174e-07 9.9586e-26
7.3235e-07 9.4098e-26
7.3296e-07 9.1749e-26
7.3357e-07 9.0016e-26
7.3418e-07 8.7436e-26
7.348e-07 8.8003e-26
7.3541e-07 8.8449e-26
7.3602e-07 8.9167e-26
7.3664e-07 8.9446e-26
7.3725e-07 8.7662e-26
7.3787e-07 8.5852e-26
7.3848e-07 8.5314e-26
7.391e-07 8.4686e-26
7.3971e-07 8.3313e-26
7.4033e-07 8.1868e-26
7.4095e-07 8.1166e-26
7.4157e-07 8.0426e-26
7.4218e-07 8.0076e-26
7.428e-07 7.9775e-26
7.4342e-07 7.88e-26
7.4404e-07 7.8686e-26
7.4466e-07 7.8651e-26
7.4529e-07 7.8587e-26
7.4591e-07 7.8726e-26
7.4653e-07 7.8495e-26
7.4715e-07 7.8436e-26
7.4778e-07 7.8137e-26
7.484e-07 7.7388e-26
7.4902e-07 7.6468e-26
7.4965e-07 7.5513e-26
7.5027e-07 7.4482e-26
7.509e-07 7.3153e-26
7.5153e-07 7.157e-26
7.5215e-07 7.0088e-26
7.5278e-07 6.8755e-26
7.5341e-07 6.7559e-26
7.5404e-07 6.6538e-26
7.5467e-07 6.5658e-26
7.553e-07 6.4961e-26
7.5593e-07 6.4445e-26
7.5656e-07 6.4175e-26
7.5719e-07 6.4225e-26
7.5782e-07 6.46e-26
7.5845e-07 6.5675e-26
7.5908e-07 6.8173e-26
7.5972e-07 7.3237e-26
7.6035e-07 8.2924e-26
7.6099e-07 8.4709e-26
7.6162e-07 7.9888e-26
7.6226e-07 7.8828e-26
7.6289e-07 8.0428e-26
7.6353e-07 8.1255e-26
7.6417e-07 7.9597e-26
7.648e-07 7.7408e-26
7.6544e-07 7.501e-26
7.6608e-07 7.2687e-26
7.6672e-07 7.0363e-26
7.6736e-07 6.8148e-26
7.68e-07 6.6328e-26
7.6864e-07 6.513e-26
7.6928e-07 6.4098e-26
7.6992e-07 6.2991e-26
7.7056e-07 6.1778e-26
7.7121e-07 6.0979e-26
7.7185e-07 6.0847e-26
7.7249e-07 6.1138e-26
7.7314e-07 6.1191e-26
7.7378e-07 6.14e-26
7.7443e-07 6.187e-26
7.7508e-07 6.2492e-26
7.7572e-07 6.2921e-26
7.7637e-07 6.3327e-26
7.7702e-07 6.3933e-26
7.7766e-07 6.4466e-26
7.7831e-07 6.4764e-26
7.7896e-07 6.5087e-26
7.7961e-07 6.5176e-26
7.8026e-07 6.478e-26
7.8091e-07 6.4216e-26
7.8157e-07 6.3673e-26
7.8222e-07 6.2942e-26
7.8287e-07 6.2098e-26
7.8352e-07 6.162e-26
7.8418e-07 6.1485e-26
7.8483e-07 6.1105e-26
7.8549e-07 6.0429e-26
7.8614e-07 6.0835e-26
7.868e-07 6.1964e-26
7.8745e-07 6.227e-26
7.8811e-07 6.2005e-26
7.8877e-07 6.2711e-26
7.8943e-07 6.3554e-26
7.9008e-07 6.2964e-26
7.9074e-07 6.1742e-26
7.914e-07 6.1135e-26
7.9206e-07 6.055e-26
7.9272e-07 5.951e-26
7.9339e-07 5.0797e-26
7.9405e-07 2.7905e-26
7.9471e-07 6.6576e-27
7.9537e-07 -0
7.9604e-07 -0
7.967e-07 -0
7.9736e-07 -0
7.9803e-07 -0
7.987e-07 -0
7.9936e-07 -0
8.0003e-07 -0
8.007e-07 -0
8.0136e-07 -0
8.0203e-07 -0
8.027e-07 -0
8.0337e-07 -0
8.0404e-07 -0
8.0471e-07 -0
8.0538e-07 -0
8.0606e-07 -0
8.0673e-07 -0
8.074e-07 -0
8.0807e-07 -0
8.0875e-07 -0
8.0942e-07 -0
8.101e-07 -0
8.1077e-07 -0
8.1145e-07 -0
8.1213e-07 -0
8.1281e-07 -0
8.1348e-07 -0
8.1416e-07 -0
8.1484e-07 -0
8.1552e-07 -0
8.162e-07 -0
8.1688e-07 -0
8.1756e-07 -0
8.1825e-07 -0
8.1893e-07 -0
8.1961e-07 -0
8.203e-07 -0
8.2098e-07 -0
8.2166e-07 -0
8.2235e-07 -0
8.2304e-07 -0
8.2372e-07 -0
8.2441e-07 -0
8.251e-07 -0
8.2579e-07 -0
8.2647e-07 -0
8.2716e-07 -0
8.2785e-07 -0
8.2854e-07 -0
8.2924e-07 -0
8.2993e-07 -0
8.3062e-07 -0
8.3131e-07 -0
8.3201e-07 -0
8.327e-07 -0
8.334e-07 -0
8.3409e-07 -0
8.3479e-07 -0
8.3548e-07 -0
8.3618e-07 -0
8.3688e-07 -0
8.3758e-07 -0
8.3827e-07 -0
8.3897e-07 -0
8.3967e-07 -0
8.4037e-07 -0
8.4107e-07 -0
8.4178e-07 -0
8.4248e-07 -0
8.4318e-07 -0
8.4388e-07 -0
8.4459e-07 -0
8.4529e-07 -0
8.46e-07 -0
8.467e-07 -0
8.4741e-07 -0
8.4812e-07 -0
8.4883e-07 -0
8.4953e-07 -0
8.5024e-07 -0
8.5095e-07 -0
8.5166e-07 -0
8.5237e-07 -0
8.5308e-07 -0
8.5379e-07 -0
8.5451e-07 -0
8.5522e-07 -0
8.5593e-07 -0
8.5665e-07 -0
8.5736e-07 -0
8.5808e-07 -0
8.5879e-07 -0
8.5951e-07 -0
8.6023e-07 -0
8.6094e-07 -0
8.6166e-07 -0
8.6238e-07 -0
8.631e-07 -0
8.6382e-07 -0
8.6454e-07 -0
8.6526e-07 -0
8.6598e-07 -0
8.6671e-07 -0
8.6743e-07 -0
8.6815e-07 -0
8.6888e-07 -0
8.696e-07 -0
8.7033e-07 -0
8.7105e-07 -0
8.7178e-07 -0
8.7251e-07 -0
8.7324e-07 -0
8.7396e-07 -0
8.7469e-07 -0
8.7542e-07 -0
8.7615e-07 -0
8.7688e-07 -0
8.7762e-07 -0
8.7835e-07 -0
8.7908e-07 -0
8.7981e-07 -0
8.8055e-07 -0
8.8128e-07 -0
8.8202e-07 -0
8.8275e-07 -0
8.8349e-07 -0
8.8423e-07 -0
8.8496e-07 -0
8.857e-07 -0
8.8644e-07 -0
8.8718e-07 -0
8.8792e-07 -0
8.8866e-07 -0
8.894e-07 -0
8.9015e-07 -0
8.9089e-07 -0
8.9163e-07 -0
8.9237e-07 -0
8.9312e-07 -0
8.9386e-07 -0
8.9461e-07 -0
8.9536e-07 -0
8.961e-07 -0
8.9685e-07 -0
8.976e-07 -0
8.9835e-07 -0
8.991e-07 -0
8.9985e-07 -0
9.006e-07 -0
9.0135e-07 -0
9.021e-07 -0
9.0285e-07 -0
9.0361e-07 -0
9.0436e-07 -0
9.0512e-07 -0
9.0587e-07 -0
9.0663e-07 -0
9.0738e-07 -0
9.0814e-07 -0
9.089e-07 -0
9.0966e-07 -0
9.1041e-07 -0
9.1117e-07 -0
9.1193e-07 -0
9.1269e-07 -0
9.1346e-07 -0
9.1422e-07 -0
9.1498e-07 -0
9.1574e-07 -0
9.1651e-07 -0
9.1727e-07 -0
9.1804e-07 -0
9.188e-07 -0
9.1957e-07 -0
9.2034e-07 -0
9.211e-07 -0
9.2187e-07 -0
9.2264e-07 -0
9.2341e-07 -0
9.2418e-07 -0
9.2495e-07 -0
9.2572e-07 -0
9.265e-07 -0
9.2727e-07 -0
9.2804e-07 -0
9.2882e-07 -0
9.2959e-07 -0
9.3037e-07 -0
9.3114e-07 -0
9.3192e-07 -0
9.327e-07 -0
9.3348e-07 -0
9.3426e-07 -0
9.3503e-07 -0
9.3581e-07 -0
9.366e-07 -0
9.3738e-07 -0
9.3816e-07 -0
9.3894e-07 -0
9.3972e-07 -0
9.4051e-07 -0
9.4129e-07 -0
9.4208e-07 -0
9.4286e-07 -0
9.4365e-07 -0
9.4444e-07 -0
9.4523e-07 -0
9.4601e-07 -0
9.468e-07 -0
9.4759e-07 -0
9.4838e-07 -0
9.4918e-07 -0
9.4997e-07 -0
9.5076e-07 -0
9.5155e-07 -0
9.5235e-07 -0
9.5314e-07 -0
9.5394e-07 -0
9.5473e-07 -0
9.5553e-07 -0
9.5633e-07 -0
9.5712e-07 -0
9.5792e-07 -0
9.5872e-07 -0
9.5952e-07 -0
9.6032e-07 -0
9.6112e-07 -0
9.6192e-07 -0
9.6273e-07 -0
9.6353e-07 -0
9.6433e-07 -0
9.6514e-07 -0
9.6594e-07 -0
9.6675e-07 -0
9.6756e-07 -0
9.6836e-07 -0
9.6917e-07 -0
9.6998e-07 -0
9.7079e-07 -0
9.716e-07 -0
9.7241e-07 -0
9.7322e-07 -0
9.7403e-07 -0
9.7484e-07 -0
9.7566e-07 -0
9.7647e-07 -0
9.7729e-07 -0
9.781e-07 -0
9.7892e-07 -0
9.7973e-07 -0
9.8055e-07 -0
9.8137e-07 -0
9.8219e-07 -0
9.8301e-07 -0
9.8383e-07 -0
9.8465e-07 -0
9.8547e-07 -0
9.8629e-07 -0
9.8711e-07 -0
9.8794e-07 -0
9.8876e-07 -0
9.8959e-07 -0
9.9041e-07 -0
9.9124e-07 -0
9.9207e-07 -0
9.9289e-07 -0
9.9372e-07 -0
9.9455e-07 -0
9.9538e-07 -0
9.9621e-07 -0
9.9704e-07 -0
9.9787e-07 -0
9.9871e-07 -0
9.9954e-07 -0
1.0004e-06 -0
1.0012e-06 -0
1.002e-06 -0
1.0029e-06 -0
1.0037e-06 -0
1.0046e-06 -0
1.0054e-06 -0
1.0062e-06 -0
1.0071e-06 -0
1.0079e-06 -0
1.0087e-06 -0
1.0096e-06 -0
1.0104e-06 -0
1.0113e-06 -0
1.0121e-06 -0
1.013e-06 -0
1.0138e-06 -0
1.0147e-06 -0
1.0155e-06 -0
1.0163e-06 -0
1.0172e-06 -0
1.018e-06 -0
1.0189e-06 -0
1.0197e-06 -0
1.0206e-06 -0
1.0214e-06 -0
1.0223e-06 -0
1.0232e-06 -0
1.024e-06 -0
1.0249e-06 -0
1.0257e-06 -0
1.0266e-06 -0
1.0274e-06 -0
1.0283e-06 -0
1.0291e-06 -0
1.03e-06 -0
