2.8e-07 3.9348e-22
2.8023e-07 3.8121e-22
2.8047e-07 3.7196e-22
2.807e-07 3.661e-22
2.8094e-07 3.6108e-22
2.8117e-07 3.5173e-22
2.814e-07 3.3917e-22
2.8164e-07 3.288e-22
2.8187e-07 3.2213e-22
2.8211e-07 3.1782e-22
2.8234e-07 3.1263e-22
2.8258e-07 3.0562e-22
2.8282e-07 2.9989e-22
2.8305e-07 2.9714e-22
2.8329e-07 2.953e-22
2.8352e-07 2.8809e-22
2.8376e-07 2.7618e-22
2.84e-07 2.6596e-22
2.8423e-07 2.5907e-22
2.8447e-07 2.5403e-22
2.8471e-07 2.488e-22
2.8495e-07 2.419e-22
2.8518e-07 2.3399e-22
2.8542e-07 2.2773e-22
2.8566e-07 2.2388e-22
2.859e-07 2.2061e-22
2.8614e-07 2.1593e-22
2.8638e-07 2.1005e-22
2.8661e-07 2.043e-22
2.8685e-07 1.9965e-22
2.8709e-07 1.956e-22
2.8733e-07 1.9007e-22
2.8757e-07 1.8257e-22
2.8781e-07 1.7524e-22
2.8805e-07 1.6941e-22
2.8829e-07 1.6502e-22
2.8853e-07 1.613e-22
2.8877e-07 1.5739e-22
2.8901e-07 1.5315e-22
2.8926e-07 1.4878e-22
2.895e-07 1.443e-22
2.8974e-07 1.4026e-22
2.8998e-07 1.3684e-22
2.9022e-07 1.3368e-22
2.9046e-07 1.3062e-22
2.9071e-07 1.2737e-22
2.9095e-07 1.2357e-22
2.9119e-07 1.1923e-22
2.9143e-07 1.1452e-22
2.9168e-07 1.1007e-22
2.9192e-07 1.0639e-22
2.9216e-07 1.0347e-22
2.9241e-07 1.0125e-22
2.9265e-07 9.9255e-23
2.929e-07 9.6572e-23
2.9314e-07 9.3105e-23
2.9339e-07 8.9391e-23
2.9363e-07 8.592e-23
2.9388e-07 8.3206e-23
2.9412e-07 8.1228e-23
2.9437e-07 7.937e-23
2.9461e-07 7.7258e-23
2.9486e-07 7.484e-23
2.951e-07 7.2029e-23
2.9535e-07 6.9048e-23
2.956e-07 6.6478e-23
2.9584e-07 6.4314e-23
2.9609e-07 6.2031e-23
2.9634e-07 5.9906e-23
2.9658e-07 5.8432e-23
2.9683e-07 5.7032e-23
2.9708e-07 5.5078e-23
2.9733e-07 5.2881e-23
2.9757e-07 5.0789e-23
2.9782e-07 4.8887e-23
2.9807e-07 4.7258e-23
2.9832e-07 4.5888e-23
2.9857e-07 4.4715e-23
2.9882e-07 4.3559e-23
2.9907e-07 4.2059e-23
2.9932e-07 4.0213e-23
2.9957e-07 3.8471e-23
2.9982e-07 3.7174e-23
3.0007e-07 3.6193e-23
3.0032e-07 3.5228e-23
3.0057e-07 3.4166e-23
3.0082e-07 3.2879e-23
3.0107e-07 3.1397e-23
3.0132e-07 3.0058e-23
3.0157e-07 2.91e-23
3.0182e-07 2.8449e-23
3.0207e-07 2.781e-23
3.0233e-07 2.6942e-23
3.0258e-07 2.5834e-23
3.0283e-07 2.4622e-23
3.0308e-07 2.3525e-23
3.0334e-07 2.27e-23
3.0359e-07 2.2138e-23
3.0384e-07 2.1757e-23
3.041e-07 2.1328e-23
3.0435e-07 2.0639e-23
3.046e-07 1.9723e-23
3.0486e-07 1.8699e-23
3.0511e-07 1.7727e-23
3.0537e-07 1.6999e-23
3.0562e-07 1.657e-23
3.0588e-07 1.6296e-23
3.0613e-07 1.6038e-23
3.0639e-07 1.5675e-23
3.0664e-07 1.5088e-23
3.069e-07 1.4321e-23
3.0715e-07 1.3487e-23
3.0741e-07 1.276e-23
3.0767e-07 1.2317e-23
3.0792e-07 1.2138e-23
3.0818e-07 1.1957e-23
3.0844e-07 1.1651e-23
3.087e-07 1.137e-23
3.0895e-07 1.108e-23
3.0921e-07 1.0566e-23
3.0947e-07 9.8361e-24
3.0973e-07 9.2083e-24
3.0998e-07 8.9174e-24
3.1024e-07 8.8008e-24
3.105e-07 8.5929e-24
3.1076e-07 8.3085e-24
3.1102e-07 8.107e-24
3.1128e-07 8.0023e-24
3.1154e-07 7.7811e-24
3.118e-07 7.3319e-24
3.1206e-07 6.8562e-24
3.1232e-07 6.4841e-24
3.1258e-07 6.179e-24
3.1284e-07 5.9562e-24
3.131e-07 5.883e-24
3.1336e-07 5.9661e-24
3.1362e-07 5.9921e-24
3.1389e-07 5.7337e-24
3.1415e-07 5.2732e-24
3.1441e-07 4.8011e-24
3.1467e-07 4.4576e-24
3.1494e-07 4.3066e-24
3.152e-07 4.3507e-24
3.1546e-07 4.4839e-24
3.1572e-07 4.4141e-24
3.1599e-07 4.0775e-24
3.1625e-07 3.7147e-24
3.1651e-07 3.4409e-24
3.1678e-07 3.312e-24
3.1704e-07 3.3384e-24
3.1731e-07 3.4166e-24
3.1757e-07 3.462e-24
3.1784e-07 3.3571e-24
3.181e-07 3.0581e-24
3.1837e-07 2.6953e-24
3.1863e-07 2.3938e-24
3.189e-07 2.2078e-24
3.1917e-07 2.2251e-24
3.1943e-07 2.4284e-24
3.197e-07 2.606e-24
3.1996e-07 2.6408e-24
3.2023e-07 2.4788e-24
3.205e-07 2.1405e-24
3.2077e-07 1.79e-24
3.2103e-07 1.5372e-24
3.213e-07 1.4225e-24
3.2157e-07 1.4452e-24
3.2184e-07 1.6435e-24
3.2211e-07 1.8974e-24
3.2238e-07 1.9792e-24
3.2264e-07 1.9339e-24
3.2291e-07 1.7545e-24
3.2318e-07 1.4112e-24
3.2345e-07 1.0839e-24
3.2372e-07 8.8933e-25
3.2399e-07 8.5122e-25
3.2426e-07 9.2411e-25
3.2453e-07 1.0822e-24
3.248e-07 1.3094e-24
3.2507e-07 1.3966e-24
3.2535e-07 1.291e-24
3.2562e-07 1.1479e-24
3.2589e-07 9.6057e-25
3.2616e-07 7.4965e-25
3.2643e-07 6.0167e-25
3.2671e-07 5.3885e-25
3.2698e-07 5.8288e-25
3.2725e-07 6.7715e-25
3.2752e-07 7.6891e-25
3.278e-07 9.1957e-25
3.2807e-07 1.0123e-24
3.2834e-07 8.8215e-25
3.2862e-07 6.5327e-25
3.2889e-07 4.7403e-25
3.2917e-07 3.6247e-25
3.2944e-07 3.0998e-25
3.2972e-07 3.003e-25
3.2999e-07 3.496e-25
3.3027e-07 4.6368e-25
3.3054e-07 5.461e-25
3.3082e-07 5.8314e-25
3.3109e-07 6.2525e-25
3.3137e-07 5.8801e-25
3.3165e-07 4.5586e-25
3.3192e-07 3.2729e-25
3.322e-07 2.4091e-25
3.3248e-07 1.9502e-25
3.3275e-07 1.9111e-25
3.3303e-07 2.1608e-25
3.3331e-07 2.7045e-25
3.3359e-07 3.6687e-25
3.3387e-07 4.2587e-25
3.3414e-07 3.7393e-25
3.3442e-07 2.7916e-25
3.347e-07 2.0897e-25
3.3498e-07 1.5853e-25
3.3526e-07 1.219e-25
3.3554e-07 1.0197e-25
3.3582e-07 9.6643e-26
3.361e-07 1.1281e-25
3.3638e-07 1.4931e-25
3.3666e-07 1.8053e-25
3.3694e-07 2.1993e-25
3.3722e-07 2.7332e-25
3.375e-07 2.7602e-25
3.3779e-07 2.1745e-25
3.3807e-07 1.5319e-25
3.3835e-07 1.0818e-25
3.3863e-07 8.1576e-26
3.3891e-07 6.9399e-26
3.392e-07 6.838e-26
3.3948e-07 7.465e-26
3.3976e-07 9.2981e-26
3.4005e-07 1.2638e-25
3.4033e-07 1.4334e-25
3.4061e-07 1.2225e-25
3.409e-07 8.7865e-26
3.4118e-07 6.198e-26
3.4147e-07 4.5805e-26
3.4175e-07 3.7315e-26
3.4204e-07 3.349e-26
3.4232e-07 3.0741e-26
3.4261e-07 3.0232e-26
3.4289e-07 3.6054e-26
3.4318e-07 4.528e-26
3.4347e-07 5.585e-26
3.4375e-07 7.834e-26
3.4404e-07 1.0279e-25
3.4433e-07 1.0017e-25
3.4461e-07 7.6152e-26
3.449e-07 5.3952e-26
3.4519e-07 3.9959e-26
3.4548e-07 3.2789e-26
3.4577e-07 2.8719e-26
3.4605e-07 2.4492e-26
3.4634e-07 2.0833e-26
3.4663e-07 1.9904e-26
3.4692e-07 2.4775e-26
3.4721e-07 3.2963e-26
3.475e-07 3.4296e-26
3.4779e-07 2.7355e-26
3.4808e-07 1.9584e-26
3.4837e-07 1.4573e-26
3.4866e-07 1.1836e-26
3.4895e-07 1.0296e-26
3.4924e-07 1.016e-26
3.4953e-07 1.101e-26
3.4983e-07 1.1037e-26
3.5012e-07 1.0403e-26
3.5041e-07 1.0156e-26
3.507e-07 1.0723e-26
3.5099e-07 1.5273e-26
3.5129e-07 2.4829e-26
3.5158e-07 3.0747e-26
3.5187e-07 2.7211e-26
3.5217e-07 2.0304e-26
3.5246e-07 1.5612e-26
3.5276e-07 1.2535e-26
3.5305e-07 9.7883e-27
3.5334e-07 7.5224e-27
3.5364e-07 5.8104e-27
3.5393e-07 4.4699e-27
3.5423e-07 3.7123e-27
3.5452e-07 3.8161e-27
3.5482e-07 4.6456e-27
3.5512e-07 5.2107e-27
3.5541e-07 4.7172e-27
3.5571e-07 3.7017e-27
3.5601e-07 2.9036e-27
3.563e-07 2.6324e-27
3.566e-07 3.0572e-27
3.569e-07 3.5177e-27
3.572e-07 3.3371e-27
3.5749e-07 2.889e-27
3.5779e-07 2.4345e-27
3.5809e-07 1.931e-27
3.5839e-07 1.58e-27
3.5869e-07 1.6141e-27
3.5899e-07 2.4683e-27
3.5929e-07 4.2313e-27
3.5959e-07 5.6176e-27
3.5989e-07 5.5835e-27
3.6019e-07 4.7663e-27
3.6049e-07 3.8495e-27
3.6079e-07 2.9962e-27
3.6109e-07 2.3351e-27
3.6139e-07 1.8304e-27
3.6169e-07 1.4498e-27
3.6199e-07 1.2225e-27
3.623e-07 1.1149e-27
3.626e-07 1.0275e-27
3.629e-07 9.497e-28
3.632e-07 9.3647e-28
3.6351e-07 9.5192e-28
3.6381e-07 9.1592e-28
3.6411e-07 8.6173e-28
3.6442e-07 9.7348e-28
3.6472e-07 1.2194e-27
3.6502e-07 1.3024e-27
3.6533e-07 1.2057e-27
3.6563e-07 1.068e-27
3.6594e-07 8.936e-28
3.6624e-07 7.5946e-28
3.6655e-07 7.125e-28
3.6686e-07 7.0129e-28
3.6716e-07 7.1533e-28
3.6747e-07 7.3495e-28
3.6777e-07 7.1264e-28
3.6808e-07 6.524e-28
3.6839e-07 6.0348e-28
3.687e-07 5.8675e-28
3.69e-07 5.8788e-28
3.6931e-07 5.9872e-28
3.6962e-07 6.2648e-28
3.6993e-07 7.0833e-28
3.7024e-07 9.3422e-28
3.7054e-07 1.1991e-27
3.7085e-07 1.282e-27
3.7116e-07 1.2146e-27
3.7147e-07 1.0837e-27
3.7178e-07 9.3028e-28
3.7209e-07 8.1505e-28
3.724e-07 7.3641e-28
3.7271e-07 6.7899e-28
3.7302e-07 6.526e-28
3.7334e-07 6.71e-28
3.7365e-07 6.9448e-28
3.7396e-07 6.7887e-28
3.7427e-07 6.5688e-28
3.7458e-07 6.4235e-28
3.749e-07 6.656e-28
3.7521e-07 8.7658e-28
3.7552e-07 1.1213e-27
3.7583e-07 1.1459e-27
3.7615e-07 1.0992e-27
3.7646e-07 1.007e-27
3.7678e-07 8.9304e-28
3.7709e-07 8.4016e-28
3.7741e-07 7.8105e-28
3.7772e-07 7.4e-28
3.7804e-07 6.9395e-28
3.7835e-07 6.3713e-28
3.7867e-07 5.966e-28
3.7898e-07 5.5757e-28
3.793e-07 5.3855e-28
3.7961e-07 5.3499e-28
3.7993e-07 5.3105e-28
3.8025e-07 5.3011e-28
3.8057e-07 5.3116e-28
3.8088e-07 5.3394e-28
3.812e-07 5.3855e-28
3.8152e-07 5.4255e-28
3.8184e-07 5.4328e-28
3.8216e-07 5.4209e-28
3.8247e-07 5.4257e-28
3.8279e-07 5.4447e-28
3.8311e-07 5.4588e-28
3.8343e-07 5.5135e-28
3.8375e-07 5.6178e-28
3.8407e-07 5.6766e-28
3.8439e-07 5.6765e-28
3.8471e-07 5.6915e-28
3.8503e-07 5.6893e-28
3.8536e-07 5.6308e-28
3.8568e-07 5.5783e-28
3.86e-07 5.5374e-28
3.8632e-07 5.4869e-28
3.8664e-07 5.7386e-28
3.8697e-07 6.2568e-28
3.8729e-07 6.7656e-28
3.8761e-07 7.6264e-28
3.8793e-07 8.4113e-28
3.8826e-07 8.2327e-28
3.8858e-07 7.7334e-28
3.8891e-07 8.2888e-28
3.8923e-07 9.4257e-28
3.8956e-07 9.5615e-28
3.8988e-07 9.502e-28
3.9021e-07 1.0005e-27
3.9053e-07 9.8891e-28
3.9086e-07 9.3832e-28
3.9118e-07 9.4752e-28
3.9151e-07 1.0055e-27
3.9184e-07 1.0799e-27
3.9216e-07 1.1017e-27
3.9249e-07 1.0487e-27
3.9282e-07 1.0005e-27
3.9315e-07 9.7444e-28
3.9347e-07 9.8225e-28
3.938e-07 1.0486e-27
3.9413e-07 1.1226e-27
3.9446e-07 1.1932e-27
3.9479e-07 1.2197e-27
3.9512e-07 1.206e-27
3.9545e-07 1.205e-27
3.9578e-07 1.1787e-27
3.9611e-07 1.1489e-27
3.9644e-07 1.1475e-27
3.9677e-07 1.1621e-27
3.971e-07 1.1747e-27
3.9743e-07 1.1833e-27
3.9776e-07 1.1451e-27
3.9809e-07 1.0399e-27
3.9843e-07 9.9571e-28
3.9876e-07 1.0878e-27
3.9909e-07 1.2024e-27
3.9942e-07 1.2227e-27
3.9976e-07 1.1831e-27
4.0009e-07 1.1796e-27
4.0042e-07 1.246e-27
4.0076e-07 1.3095e-27
4.0109e-07 1.3299e-27
4.0143e-07 1.3592e-27
4.0176e-07 1.4163e-27
4.021e-07 1.4709e-27
4.0243e-07 1.4995e-27
4.0277e-07 1.4997e-27
4.031e-07 1.4773e-27
4.0344e-07 1.4477e-27
4.0378e-07 1.4365e-27
4.0411e-07 1.4439e-27
4.0445e-07 1.4452e-27
4.0479e-07 1.4391e-27
4.0513e-07 1.4455e-27
4.0546e-07 1.4771e-27
4.058e-07 1.5335e-27
4.0614e-07 1.6041e-27
4.0648e-07 1.6933e-27
4.0682e-07 1.8197e-27
4.0716e-07 1.976e-27
4.075e-07 2.1327e-27
4.0784e-07 2.2753e-27
4.0818e-07 2.3981e-27
4.0852e-07 2.4941e-27
4.0886e-07 2.5731e-27
4.092e-07 2.6508e-27
4.0954e-07 2.7131e-27
4.0988e-07 2.7432e-27
4.1023e-07 2.7532e-27
4.1057e-07 2.7594e-27
4.1091e-07 2.7599e-27
4.1125e-07 2.7497e-27
4.116e-07 2.7287e-27
4.1194e-07 2.6888e-27
4.1228e-07 2.6211e-27
4.1263e-07 2.5344e-27
4.1297e-07 2.4554e-27
4.1332e-07 2.4123e-27
4.1366e-07 2.4249e-27
4.1401e-07 2.495e-27
4.1435e-07 2.601e-27
4.147e-07 2.7285e-27
4.1504e-07 2.8787e-27
4.1539e-07 3.0413e-27
4.1574e-07 3.2001e-27
4.1608e-07 3.3436e-27
4.1643e-07 3.472e-27
4.1678e-07 3.588e-27
4.1712e-07 3.6875e-27
4.1747e-07 3.7679e-27
4.1782e-07 3.8178e-27
4.1817e-07 3.821e-27
4.1852e-07 3.7755e-27
4.1887e-07 3.7169e-27
4.1922e-07 3.6879e-27
4.1957e-07 3.6936e-27
4.1992e-07 3.7301e-27
4.2027e-07 3.7885e-27
4.2062e-07 3.8746e-27
4.2097e-07 4.0235e-27
4.2132e-07 4.2424e-27
4.2167e-07 4.4968e-27
4.2202e-07 4.7617e-27
4.2238e-07 5.0517e-27
4.2273e-07 5.3799e-27
4.2308e-07 5.7147e-27
4.2343e-07 6.0268e-27
4.2379e-07 6.3327e-27
4.2414e-07 6.6463e-27
4.2449e-07 6.9415e-27
4.2485e-07 7.1907e-27
4.252e-07 7.3871e-27
4.2556e-07 7.5034e-27
4.2591e-07 7.5132e-27
4.2627e-07 7.4554e-27
4.2662e-07 7.3867e-27
4.2698e-07 7.3005e-27
4.2733e-07 7.1609e-27
4.2769e-07 6.9839e-27
4.2805e-07 6.8093e-27
4.2841e-07 6.6599e-27
4.2876e-07 6.5471e-27
4.2912e-07 6.4779e-27
4.2948e-07 6.4577e-27
4.2984e-07 6.5165e-27
4.302e-07 6.6647e-27
4.3055e-07 6.8913e-27
4.3091e-07 7.1884e-27
4.3127e-07 7.5409e-27
4.3163e-07 7.911e-27
4.3199e-07 8.2599e-27
4.3235e-07 8.5701e-27
4.3271e-07 8.8238e-27
4.3307e-07 9.0125e-27
4.3344e-07 9.1455e-27
4.338e-07 9.2013e-27
4.3416e-07 9.1585e-27
4.3452e-07 9.0762e-27
4.3488e-07 9.0293e-27
4.3525e-07 9.0151e-27
4.3561e-07 9.0087e-27
4.3597e-07 9.0383e-27
4.3634e-07 9.1508e-27
4.367e-07 9.3535e-27
4.3707e-07 9.6338e-27
4.3743e-07 1.0006e-26
4.3779e-07 1.0479e-26
4.3816e-07 1.1058e-26
4.3853e-07 1.1762e-26
4.3889e-07 1.2534e-26
4.3926e-07 1.3264e-26
4.3962e-07 1.3963e-26
4.3999e-07 1.47e-26
4.4036e-07 1.5442e-26
4.4073e-07 1.6148e-26
4.4109e-07 1.6869e-26
4.4146e-07 1.7551e-26
4.4183e-07 1.8131e-26
4.422e-07 1.8678e-26
4.4257e-07 1.9214e-26
4.4294e-07 1.9462e-26
4.4331e-07 1.9263e-26
4.4368e-07 1.8903e-26
4.4405e-07 1.8595e-26
4.4442e-07 1.8258e-26
4.4479e-07 1.7821e-26
4.4516e-07 1.7284e-26
4.4553e-07 1.674e-26
4.459e-07 1.6277e-26
4.4627e-07 1.5886e-26
4.4664e-07 1.5632e-26
4.4702e-07 1.5601e-26
4.4739e-07 1.5774e-26
4.4776e-07 1.6114e-26
4.4814e-07 1.659e-26
4.4851e-07 1.719e-26
4.4889e-07 1.7873e-26
4.4926e-07 1.8565e-26
4.4963e-07 1.9232e-26
4.5001e-07 1.9858e-26
4.5038e-07 2.0367e-26
4.5076e-07 2.0698e-26
4.5114e-07 2.0823e-26
4.5151e-07 2.0809e-26
4.5189e-07 2.0749e-26
4.5227e-07 2.0679e-26
4.5264e-07 2.0599e-26
4.5302e-07 2.0484e-26
4.534e-07 2.0325e-26
4.5378e-07 2.0243e-26
4.5416e-07 2.046e-26
4.5454e-07 2.1018e-26
4.5491e-07 2.1761e-26
4.5529e-07 2.2492e-26
4.5567e-07 2.314e-26
4.5605e-07 2.3882e-26
4.5643e-07 2.4911e-26
4.5682e-07 2.6229e-26
4.572e-07 2.773e-26
4.5758e-07 2.9306e-26
4.5796e-07 3.0881e-26
4.5834e-07 3.2434e-26
4.5872e-07 3.3966e-26
4.5911e-07 3.5491e-26
4.5949e-07 3.7031e-26
4.5987e-07 3.8542e-26
4.6026e-07 3.9924e-26
4.6064e-07 4.1058e-26
4.6102e-07 4.1882e-26
4.6141e-07 4.238e-26
4.6179e-07 4.2549e-26
4.6218e-07 4.2434e-26
4.6256e-07 4.2096e-26
4.6295e-07 4.1504e-26
4.6334e-07 4.0599e-26
4.6372e-07 3.9483e-26
4.6411e-07 3.8339e-26
4.645e-07 3.7254e-26
4.6489e-07 3.6266e-26
4.6527e-07 3.5442e-26
4.6566e-07 3.4893e-26
4.6605e-07 3.4728e-26
4.6644e-07 3.5e-26
4.6683e-07 3.5582e-26
4.6722e-07 3.6411e-26
4.6761e-07 3.7363e-26
4.68e-07 3.8435e-26
4.6839e-07 3.9635e-26
4.6878e-07 4.0859e-26
4.6917e-07 4.1978e-26
4.6956e-07 4.2976e-26
4.6995e-07 4.3637e-26
4.7034e-07 4.3858e-26
4.7074e-07 4.3997e-26
4.7113e-07 4.4044e-26
4.7152e-07 4.3913e-26
4.7192e-07 4.3815e-26
4.7231e-07 4.3806e-26
4.727e-07 4.3828e-26
4.731e-07 4.3944e-26
4.7349e-07 4.4305e-26
4.7389e-07 4.482e-26
4.7428e-07 4.5583e-26
4.7468e-07 4.6602e-26
4.7507e-07 4.788e-26
4.7547e-07 4.9432e-26
4.7587e-07 5.1288e-26
4.7626e-07 5.3398e-26
4.7666e-07 5.5699e-26
4.7706e-07 5.8154e-26
4.7746e-07 6.0734e-26
4.7786e-07 6.3415e-26
4.7825e-07 6.6176e-26
4.7865e-07 6.9035e-26
4.7905e-07 7.1977e-26
4.7945e-07 7.4923e-26
4.7985e-07 7.7732e-26
4.8025e-07 8.033e-26
4.8065e-07 8.2735e-26
4.8105e-07 8.4867e-26
4.8146e-07 8.656e-26
4.8186e-07 8.7707e-26
4.8226e-07 8.8315e-26
4.8266e-07 8.8413e-26
4.8306e-07 8.8046e-26
4.8347e-07 8.7324e-26
4.8387e-07 8.6326e-26
4.8427e-07 8.5218e-26
4.8468e-07 8.4107e-26
4.8508e-07 8.282e-26
4.8549e-07 8.1282e-26
4.8589e-07 7.9615e-26
4.863e-07 7.8313e-26
4.867e-07 7.7533e-26
4.8711e-07 7.72e-26
4.8752e-07 7.7217e-26
4.8792e-07 7.7643e-26
4.8833e-07 7.8447e-26
4.8874e-07 7.9648e-26
4.8914e-07 8.103e-26
4.8955e-07 8.2279e-26
4.8996e-07 8.3493e-26
4.9037e-07 8.4773e-26
4.9078e-07 8.592e-26
4.9119e-07 8.6855e-26
4.916e-07 8.7642e-26
4.9201e-07 8.8231e-26
4.9242e-07 8.8636e-26
4.9283e-07 8.8929e-26
4.9324e-07 8.9185e-26
4.9365e-07 8.9442e-26
4.9406e-07 8.9782e-26
4.9448e-07 9.0233e-26
4.9489e-07 9.0802e-26
4.953e-07 9.1608e-26
4.9571e-07 9.2754e-26
4.9613e-07 9.4233e-26
4.9654e-07 9.6025e-26
4.9696e-07 9.813e-26
4.9737e-07 1.0058e-25
4.9779e-07 1.0344e-25
4.982e-07 1.0668e-25
4.9862e-07 1.1021e-25
4.9903e-07 1.1399e-25
4.9945e-07 1.1801e-25
4.9986e-07 1.2227e-25
5.0028e-07 1.268e-25
5.007e-07 1.3139e-25
5.0112e-07 1.3636e-25
5.0154e-07 1.4179e-25
5.0195e-07 1.4664e-25
5.0237e-07 1.5105e-25
5.0279e-07 1.558e-25
5.0321e-07 1.6137e-25
5.0363e-07 1.6739e-25
5.0405e-07 1.7119e-25
5.0447e-07 1.7207e-25
5.0489e-07 1.7169e-25
5.0531e-07 1.7215e-25
5.0573e-07 1.7371e-25
5.0616e-07 1.7373e-25
5.0658e-07 1.7313e-25
5.07e-07 1.7314e-25
5.0742e-07 1.7237e-25
5.0785e-07 1.7034e-25
5.0827e-07 1.6823e-25
5.087e-07 1.6621e-25
5.0912e-07 1.6448e-25
5.0954e-07 1.6318e-25
5.0997e-07 1.6158e-25
5.104e-07 1.6017e-25
5.1082e-07 1.5933e-25
5.1125e-07 1.5905e-25
5.1167e-07 1.5909e-25
5.121e-07 1.5966e-25
5.1253e-07 1.6055e-25
5.1296e-07 1.6158e-25
5.1338e-07 1.6285e-25
5.1381e-07 1.6426e-25
5.1424e-07 1.6583e-25
5.1467e-07 1.6746e-25
5.151e-07 1.6909e-25
5.1553e-07 1.7064e-25
5.1596e-07 1.7211e-25
5.1639e-07 1.7351e-25
5.1682e-07 1.7484e-25
5.1725e-07 1.7612e-25
5.1768e-07 1.7744e-25
5.1811e-07 1.7881e-25
5.1855e-07 1.8022e-25
5.1898e-07 1.8165e-25
5.1941e-07 1.8319e-25
5.1984e-07 1.8487e-25
5.2028e-07 1.8672e-25
5.2071e-07 1.8877e-25
5.2115e-07 1.9107e-25
5.2158e-07 1.9368e-25
5.2202e-07 1.9658e-25
5.2245e-07 1.9975e-25
5.2289e-07 2.033e-25
5.2332e-07 2.0728e-25
5.2376e-07 2.1176e-25
5.242e-07 2.1644e-25
5.2464e-07 2.2088e-25
5.2507e-07 2.2492e-25
5.2551e-07 2.2884e-25
5.2595e-07 2.3291e-25
5.2639e-07 2.3771e-25
5.2683e-07 2.4281e-25
5.2727e-07 2.4748e-25
5.2771e-07 2.5166e-25
5.2815e-07 2.5596e-25
5.2859e-07 2.6044e-25
5.2903e-07 2.6474e-25
5.2947e-07 2.6879e-25
5.2991e-07 2.7273e-25
5.3035e-07 2.7636e-25
5.308e-07 2.7954e-25
5.3124e-07 2.8227e-25
5.3168e-07 2.8475e-25
5.3213e-07 2.8693e-25
5.3257e-07 2.8871e-25
5.3301e-07 2.8999e-25
5.3346e-07 2.9085e-25
5.339e-07 2.9142e-25
5.3435e-07 2.9168e-25
5.3479e-07 2.9169e-25
5.3524e-07 2.9152e-25
5.3569e-07 2.9123e-25
5.3613e-07 2.91e-25
5.3658e-07 2.9091e-25
5.3703e-07 2.9092e-25
5.3748e-07 2.9122e-25
5.3793e-07 2.92e-25
5.3837e-07 2.9321e-25
5.3882e-07 2.9469e-25
5.3927e-07 2.9682e-25
5.3972e-07 2.9961e-25
5.4017e-07 3.0274e-25
5.4062e-07 3.0694e-25
5.4107e-07 3.1148e-25
5.4153e-07 3.146e-25
5.4198e-07 3.1666e-25
5.4243e-07 3.1831e-25
5.4288e-07 3.2051e-25
5.4334e-07 3.2393e-25
5.4379e-07 3.273e-25
5.4424e-07 3.2879e-25
5.447e-07 3.3069e-25
5.4515e-07 3.3318e-25
5.4561e-07 3.3562e-25
5.4606e-07 3.3865e-25
5.4652e-07 3.4017e-25
5.4697e-07 3.402e-25
5.4743e-07 3.401e-25
5.4788e-07 3.4117e-25
5.4834e-07 3.4197e-25
5.488e-07 3.4302e-25
5.4926e-07 3.4435e-25
5.4972e-07 3.4573e-25
5.5017e-07 3.4674e-25
5.5063e-07 3.4755e-25
5.5109e-07 3.488e-25
5.5155e-07 3.4986e-25
5.5201e-07 3.5105e-25
5.5247e-07 3.526e-25
5.5293e-07 3.5425e-25
5.5339e-07 3.5599e-25
5.5386e-07 3.5791e-25
5.5432e-07 3.6e-25
5.5478e-07 3.6231e-25
5.5524e-07 3.6477e-25
5.5571e-07 3.6746e-25
5.5617e-07 3.7043e-25
5.5663e-07 3.7371e-25
5.571e-07 3.7732e-25
5.5756e-07 3.8123e-25
5.5803e-07 3.8542e-25
5.5849e-07 3.8983e-25
5.5896e-07 3.9441e-25
5.5943e-07 3.9915e-25
5.5989e-07 4.041e-25
5.6036e-07 4.0908e-25
5.6083e-07 4.1404e-25
5.613e-07 4.188e-25
5.6176e-07 4.235e-25
5.6223e-07 4.282e-25
5.627e-07 4.3265e-25
5.6317e-07 4.3661e-25
5.6364e-07 4.4036e-25
5.6411e-07 4.4414e-25
5.6458e-07 4.4767e-25
5.6505e-07 4.5094e-25
5.6552e-07 4.5396e-25
5.66e-07 4.572e-25
5.6647e-07 4.6072e-25
5.6694e-07 4.6419e-25
5.6741e-07 4.6828e-25
5.6789e-07 4.7372e-25
5.6836e-07 4.8058e-25
5.6883e-07 4.8624e-25
5.6931e-07 4.8947e-25
5.6978e-07 4.9167e-25
5.7026e-07 4.9181e-25
5.7074e-07 4.9085e-25
5.7121e-07 4.9235e-25
5.7169e-07 4.9711e-25
5.7216e-07 5.0134e-25
5.7264e-07 5.0283e-25
5.7312e-07 5.0353e-25
5.736e-07 5.0397e-25
5.7408e-07 5.0544e-25
5.7456e-07 5.0605e-25
5.7503e-07 5.0445e-25
5.7551e-07 5.0335e-25
5.7599e-07 5.022e-25
5.7647e-07 4.9948e-25
5.7696e-07 4.9803e-25
5.7744e-07 4.9625e-25
5.7792e-07 4.9278e-25
5.784e-07 4.8953e-25
5.7888e-07 4.8707e-25
5.7937e-07 4.845e-25
5.7985e-07 4.8139e-25
5.8033e-07 4.7874e-25
5.8082e-07 4.7644e-25
5.813e-07 4.74e-25
5.8179e-07 4.7202e-25
5.8227e-07 4.6999e-25
5.8276e-07 4.6815e-25
5.8324e-07 4.6681e-25
5.8373e-07 4.6565e-25
5.8422e-07 4.6441e-25
5.8471e-07 4.6327e-25
5.8519e-07 4.6238e-25
5.8568e-07 4.6238e-25
5.8617e-07 4.6396e-25
5.8666e-07 4.6619e-25
5.8715e-07 4.6879e-25
5.8764e-07 4.7366e-25
5.8813e-07 4.8141e-25
5.8862e-07 4.8986e-25
5.8911e-07 4.9396e-25
5.896e-07 4.9506e-25
5.9009e-07 4.9504e-25
5.9059e-07 4.9399e-25
5.9108e-07 4.9413e-25
5.9157e-07 4.9866e-25
5.9206e-07 5.0307e-25
5.9256e-07 5.0331e-25
5.9305e-07 4.9982e-25
5.9355e-07 5.0204e-25
5.9404e-07 5.1164e-25
5.9454e-07 5.2382e-25
5.9503e-07 5.26e-25
5.9553e-07 5.2453e-25
5.9603e-07 5.2654e-25
5.9652e-07 5.3133e-25
5.9702e-07 5.3659e-25
5.9752e-07 5.3999e-25
5.9802e-07 5.417e-25
5.9852e-07 5.4432e-25
5.9902e-07 5.4668e-25
5.9952e-07 5.4797e-25
6.0002e-07 5.4822e-25
6.0052e-07 5.4823e-25
6.0102e-07 5.4766e-25
6.0152e-07 5.4735e-25
6.0202e-07 5.4664e-25
6.0252e-07 5.4515e-25
6.0303e-07 5.4397e-25
6.0353e-07 5.4169e-25
6.0403e-07 5.391e-25
6.0454e-07 5.3661e-25
6.0504e-07 5.3378e-25
6.0555e-07 5.3049e-25
6.0605e-07 5.27e-25
6.0656e-07 5.231e-25
6.0706e-07 5.1901e-25
6.0757e-07 5.1478e-25
6.0808e-07 5.103e-25
6.0858e-07 5.0573e-25
6.0909e-07 5.0106e-25
6.096e-07 4.9633e-25
6.1011e-07 4.9185e-25
6.1062e-07 4.8791e-25
6.1113e-07 4.8445e-25
6.1164e-07 4.8113e-25
6.1215e-07 4.7774e-25
6.1266e-07 4.7425e-25
6.1317e-07 4.7062e-25
6.1368e-07 4.6701e-25
6.1419e-07 4.6347e-25
6.147e-07 4.5995e-25
6.1522e-07 4.5649e-25
6.1573e-07 4.5309e-25
6.1624e-07 4.4977e-25
6.1676e-07 4.4651e-25
6.1727e-07 4.4332e-25
6.1779e-07 4.4023e-25
6.183e-07 4.3726e-25
6.1882e-07 4.3438e-25
6.1933e-07 4.316e-25
6.1985e-07 4.2895e-25
6.2037e-07 4.2636e-25
6.2089e-07 4.2382e-25
6.214e-07 4.2134e-25
6.2192e-07 4.1889e-25
6.2244e-07 4.1651e-25
6.2296e-07 4.1415e-25
6.2348e-07 4.1182e-25
6.24e-07 4.0946e-25
6.2452e-07 4.0739e-25
6.2504e-07 4.0544e-25
6.2556e-07 4.038e-25
6.2609e-07 4.0266e-25
6.2661e-07 4.0202e-25
6.2713e-07 4.0253e-25
6.2765e-07 4.0539e-25
6.2818e-07 4.0608e-25
6.287e-07 4.0012e-25
6.2923e-07 3.9458e-25
6.2975e-07 3.9047e-25
6.3028e-07 3.853e-25
6.308e-07 3.8037e-25
6.3133e-07 3.7881e-25
6.3185e-07 3.7781e-25
6.3238e-07 3.7448e-25
6.3291e-07 3.6968e-25
6.3344e-07 3.6554e-25
6.3397e-07 3.6187e-25
6.3449e-07 3.5872e-25
6.3502e-07 3.5531e-25
6.3555e-07 3.5165e-25
6.3608e-07 3.4831e-25
6.3661e-07 3.4478e-25
6.3715e-07 3.4173e-25
6.3768e-07 3.3817e-25
6.3821e-07 3.3436e-25
6.3874e-07 3.3125e-25
6.3927e-07 3.2809e-25
6.3981e-07 3.2448e-25
6.4034e-07 3.2102e-25
6.4088e-07 3.1793e-25
6.4141e-07 3.1435e-25
6.4195e-07 3.1108e-25
6.4248e-07 3.0808e-25
6.4302e-07 3.0547e-25
6.4355e-07 3.0361e-25
6.4409e-07 3.0196e-25
6.4463e-07 3.0064e-25
6.4516e-07 2.997e-25
6.457e-07 2.9999e-25
6.4624e-07 3.013e-25
6.4678e-07 3.0228e-25
6.4732e-07 3.031e-25
6.4786e-07 3.0219e-25
6.484e-07 2.9889e-25
6.4894e-07 2.9449e-25
6.4948e-07 2.892e-25
6.5003e-07 2.8223e-25
6.5057e-07 2.775e-25
6.5111e-07 2.7869e-25
6.5165e-07 2.8212e-25
6.522e-07 2.7843e-25
6.5274e-07 2.7029e-25
6.5329e-07 2.6629e-25
6.5383e-07 2.6501e-25
6.5438e-07 2.6353e-25
6.5492e-07 2.6305e-25
6.5547e-07 2.6161e-25
6.5601e-07 2.5818e-25
6.5656e-07 2.5513e-25
6.5711e-07 2.521e-25
6.5766e-07 2.4827e-25
6.5821e-07 2.4449e-25
6.5876e-07 2.411e-25
6.5931e-07 2.3739e-25
6.5986e-07 2.3465e-25
6.6041e-07 2.3183e-25
6.6096e-07 2.281e-25
6.6151e-07 2.2482e-25
6.6206e-07 2.2224e-25
6.6261e-07 2.1987e-25
6.6317e-07 2.1774e-25
6.6372e-07 2.1528e-25
6.6427e-07 2.1294e-25
6.6483e-07 2.1042e-25
6.6538e-07 2.0748e-25
6.6594e-07 2.0478e-25
6.6649e-07 2.021e-25
6.6705e-07 1.993e-25
6.676e-07 1.9649e-25
6.6816e-07 1.9387e-25
6.6872e-07 1.9131e-25
6.6928e-07 1.8875e-25
6.6983e-07 1.862e-25
6.7039e-07 1.838e-25
6.7095e-07 1.8137e-25
6.7151e-07 1.7902e-25
6.7207e-07 1.7681e-25
6.7263e-07 1.7464e-25
6.7319e-07 1.7246e-25
6.7376e-07 1.7042e-25
6.7432e-07 1.6849e-25
6.7488e-07 1.6653e-25
6.7544e-07 1.6462e-25
6.7601e-07 1.6277e-25
6.7657e-07 1.6099e-25
6.7714e-07 1.592e-25
6.777e-07 1.5746e-25
6.7827e-07 1.5585e-25
6.7883e-07 1.5426e-25
6.794e-07 1.5271e-25
6.7996e-07 1.5146e-25
6.8053e-07 1.5042e-25
6.811e-07 1.4913e-25
6.8167e-07 1.4823e-25
6.8224e-07 1.476e-25
6.8281e-07 1.4674e-25
6.8338e-07 1.4565e-25
6.8395e-07 1.4495e-25
6.8452e-07 1.4408e-25
6.8509e-07 1.4259e-25
6.8566e-07 1.4137e-25
6.8623e-07 1.4309e-25
6.868e-07 1.5001e-25
6.8738e-07 1.572e-25
6.8795e-07 1.5243e-25
6.8852e-07 1.4593e-25
6.891e-07 1.4466e-25
6.8967e-07 1.4334e-25
6.9025e-07 1.4014e-25
6.9082e-07 1.3671e-25
6.914e-07 1.3351e-25
6.9198e-07 1.3222e-25
6.9255e-07 1.3295e-25
6.9313e-07 1.3379e-25
6.9371e-07 1.3367e-25
6.9429e-07 1.3261e-25
6.9487e-07 1.2946e-25
6.9545e-07 1.2633e-25
6.9603e-07 1.2342e-25
6.9661e-07 1.1873e-25
6.9719e-07 1.1454e-25
6.9777e-07 1.1308e-25
6.9835e-07 1.1415e-25
6.9894e-07 1.1603e-25
6.9952e-07 1.1562e-25
7.001e-07 1.146e-25
7.0069e-07 1.1365e-25
7.0127e-07 1.1232e-25
7.0186e-07 1.1098e-25
7.0244e-07 1.0951e-25
7.0303e-07 1.0657e-25
7.0361e-07 1.0375e-25
7.042e-07 1.0326e-25
7.0479e-07 1.0347e-25
7.0538e-07 1.0317e-25
7.0596e-07 1.025e-25
7.0655e-07 1.0094e-25
7.0714e-07 9.9581e-26
7.0773e-07 9.8777e-26
7.0832e-07 9.7302e-26
7.0891e-07 9.5918e-26
7.0951e-07 9.5654e-26
7.101e-07 9.5765e-26
7.1069e-07 9.4708e-26
7.1128e-07 9.3086e-26
7.1188e-07 9.1924e-26
7.1247e-07 9.2241e-26
7.1306e-07 9.2638e-26
7.1366e-07 9.2411e-26
7.1425e-07 9.2932e-26
7.1485e-07 9.4254e-26
7.1545e-07 9.5202e-26
7.1604e-07 9.727e-26
7.1664e-07 1.0223e-25
7.1724e-07 1.0769e-25
7.1784e-07 1.0852e-25
7.1844e-07 1.0627e-25
7.1904e-07 1.0553e-25
7.1964e-07 1.0485e-25
7.2024e-07 1.0311e-25
7.2084e-07 9.6596e-26
7.2144e-07 8.9331e-26
7.2204e-07 8.5866e-26
7.2264e-07 8.5642e-26
7.2324e-07 8.8164e-26
7.2385e-07 9.0684e-26
7.2445e-07 9.0256e-26
7.2506e-07 8.9249e-26
7.2566e-07 8.8485e-26
7.2627e-07 8.7389e-26
7.2687e-07 8.5428e-26
7.2748e-07 8.5357e-26
7.2809e-07 8.3697e-26
7.2869e-07 8.0706e-26
7.293e-07 8.1038e-26
7.2991e-07 8.0348e-26
7.3052e-07 7.9751e-26
7.3113e-07 7.9162e-26
7.3174e-07 7.6318e-26
7.3235e-07 7.2197e-26
7.3296e-07 7.0366e-26
7.3357e-07 6.9027e-26
7.3418e-07 6.6979e-26
7.348e-07 6.7081e-26
7.3541e-07 6.7376e-26
7.3602e-07 6.7782e-26
7.3664e-07 6.7949e-26
7.3725e-07 6.6542e-26
7.3787e-07 6.5125e-26
7.3848e-07 6.4705e-26
7.391e-07 6.4229e-26
7.3971e-07 6.3169e-26
7.4033e-07 6.2098e-26
7.4095e-07 6.1551e-26
7.4157e-07 6.1098e-26
7.4218e-07 6.0938e-26
7.428e-07 6.0747e-26
7.4342e-07 6.0137e-26
7.4404e-07 6.0223e-26
7.4466e-07 6.0364e-26
7.4529e-07 6.049e-26
7.4591e-07 6.0671e-26
7.4653e-07 6.0485e-26
7.4715e-07 6.0409e-26
7.4778e-07 6.0108e-26
7.484e-07 5.9431e-26
7.4902e-07 5.8615e-26
7.4965e-07 5.7691e-26
7.5027e-07 5.6632e-26
7.509e-07 5.5305e-26
7.5153e-07 5.375e-26
7.5215e-07 5.2214e-26
7.5278e-07 5.0736e-26
7.5341e-07 4.9439e-26
7.5404e-07 4.8334e-26
7.5467e-07 4.728e-26
7.553e-07 4.6382e-26
7.5593e-07 4.5688e-26
7.5656e-07 4.5146e-26
7.5719e-07 4.4824e-26
7.5782e-07 4.48e-26
7.5845e-07 4.5299e-26
7.5908e-07 4.7145e-26
7.5972e-07 5.1339e-26
7.6035e-07 5.7595e-26
7.6099e-07 5.791e-26
7.6162e-07 5.4514e-26
7.6226e-07 5.3323e-26
7.6289e-07 5.4098e-26
7.6353e-07 5.4494e-26
7.6417e-07 5.3423e-26
7.648e-07 5.1908e-26
7.6544e-07 5.0195e-26
7.6608e-07 4.8578e-26
7.6672e-07 4.7003e-26
7.6736e-07 4.5441e-26
7.68e-07 4.4109e-26
7.6864e-07 4.3384e-26
7.6928e-07 4.2845e-26
7.6992e-07 4.2127e-26
7.7056e-07 4.1409e-26
7.7121e-07 4.1141e-26
7.7185e-07 4.127e-26
7.7249e-07 4.1614e-26
7.7314e-07 4.191e-26
7.7378e-07 4.2385e-26
7.7443e-07 4.2905e-26
7.7508e-07 4.3538e-26
7.7572e-07 4.4184e-26
7.7637e-07 4.4815e-26
7.7702e-07 4.5457e-26
7.7766e-07 4.6028e-26
7.7831e-07 4.6453e-26
7.7896e-07 4.6688e-26
7.7961e-07 4.6649e-26
7.8026e-07 4.6279e-26
7.8091e-07 4.5708e-26
7.8157e-07 4.5074e-26
7.8222e-07 4.4306e-26
7.8287e-07 4.3424e-26
7.8352e-07 4.2656e-26
7.8418e-07 4.2007e-26
7.8483e-07 4.1316e-26
7.8549e-07 4.0571e-26
7.8614e-07 4.0481e-26
7.868e-07 4.0758e-26
7.8745e-07 4.0375e-26
7.8811e-07 3.9755e-26
7.8877e-07 4.0065e-26
7.8943e-07 4.041e-26
7.9008e-07 3.9654e-26
7.9074e-07 3.8373e-26
7.914e-07 3.758e-26
7.9206e-07 3.6891e-26
7.9272e-07 3.5932e-26
7.9339e-07 3.0397e-26
7.9405e-07 1.658e-26
7.9471e-07 3.9281e-27
7.9537e-07 -0
7.9604e-07 -0
7.967e-07 -0
7.9736e-07 -0
7.9803e-07 -0
7.987e-07 -0
7.9936e-07 -0
8.0003e-07 -0
8.007e-07 -0
8.0136e-07 -0
8.0203e-07 -0
8.027e-07 -0
8.0337e-07 -0
8.0404e-07 -0
8.0471e-07 -0
8.0538e-07 -0
8.0606e-07 -0
8.0673e-07 -0
8.074e-07 -0
8.0807e-07 -0
8.0875e-07 -0
8.0942e-07 -0
8.101e-07 -0
8.1077e-07 -0
8.1145e-07 -0
8.1213e-07 -0
8.1281e-07 -0
8.1348e-07 -0
8.1416e-07 -0
8.1484e-07 -0
8.1552e-07 -0
8.162e-07 -0
8.1688e-07 -0
8.1756e-07 -0
8.1825e-07 -0
8.1893e-07 -0
8.1961e-07 -0
8.203e-07 -0
8.2098e-07 -0
8.2166e-07 -0
8.2235e-07 -0
8.2304e-07 -0
8.2372e-07 -0
8.2441e-07 -0
8.251e-07 -0
8.2579e-07 -0
8.2647e-07 -0
8.2716e-07 -0
8.2785e-07 -0
8.2854e-07 -0
8.2924e-07 -0
8.2993e-07 -0
8.3062e-07 -0
8.3131e-07 -0
8.3201e-07 -0
8.327e-07 -0
8.334e-07 -0
8.3409e-07 -0
8.3479e-07 -0
8.3548e-07 -0
8.3618e-07 -0
8.3688e-07 -0
8.3758e-07 -0
8.3827e-07 -0
8.3897e-07 -0
8.3967e-07 -0
8.4037e-07 -0
8.4107e-07 -0
8.4178e-07 -0
8.4248e-07 -0
8.4318e-07 -0
8.4388e-07 -0
8.4459e-07 -0
8.4529e-07 -0
8.46e-07 -0
8.467e-07 -0
8.4741e-07 -0
8.4812e-07 -0
8.4883e-07 -0
8.4953e-07 -0
8.5024e-07 -0
8.5095e-07 -0
8.5166e-07 -0
8.5237e-07 -0
8.5308e-07 -0
8.5379e-07 -0
8.5451e-07 -0
8.5522e-07 -0
8.5593e-07 -0
8.5665e-07 -0
8.5736e-07 -0
8.5808e-07 -0
8.5879e-07 -0
8.5951e-07 -0
8.6023e-07 -0
8.6094e-07 -0
8.6166e-07 -0
8.6238e-07 -0
8.631e-07 -0
8.6382e-07 -0
8.6454e-07 -0
8.6526e-07 -0
8.6598e-07 -0
8.6671e-07 -0
8.6743e-07 -0
8.6815e-07 -0
8.6888e-07 -0
8.696e-07 -0
8.7033e-07 -0
8.7105e-07 -0
8.7178e-07 -0
8.7251e-07 -0
8.7324e-07 -0
8.7396e-07 -0
8.7469e-07 -0
8.7542e-07 -0
8.7615e-07 -0
8.7688e-07 -0
8.7762e-07 -0
8.7835e-07 -0
8.7908e-07 -0
8.7981e-07 -0
8.8055e-07 -0
8.8128e-07 -0
8.8202e-07 -0
8.8275e-07 -0
8.8349e-07 -0
8.8423e-07 -0
8.8496e-07 -0
8.857e-07 -0
8.8644e-07 -0
8.8718e-07 -0
8.8792e-07 -0
8.8866e-07 -0
8.894e-07 -0
8.9015e-07 -0
8.9089e-07 -0
8.9163e-07 -0
8.9237e-07 -0
8.9312e-07 -0
8.9386e-07 -0
8.9461e-07 -0
8.9536e-07 -0
8.961e-07 -0
8.9685e-07 -0
8.976e-07 -0
8.9835e-07 -0
8.991e-07 -0
8.9985e-07 -0
9.006e-07 -0
9.0135e-07 -0
9.021e-07 -0
9.0285e-07 -0
9.0361e-07 -0
9.0436e-07 -0
9.0512e-07 -0
9.0587e-07 -0
9.0663e-07 -0
9.0738e-07 -0
9.0814e-07 -0
9.089e-07 -0
9.0966e-07 -0
9.1041e-07 -0
9.1117e-07 -0
9.1193e-07 -0
9.1269e-07 -0
9.1346e-07 -0
9.1422e-07 -0
9.1498e-07 -0
9.1574e-07 -0
9.1651e-07 -0
9.1727e-07 -0
9.1804e-07 -0
9.188e-07 -0
9.1957e-07 -0
9.2034e-07 -0
9.211e-07 -0
9.2187e-07 -0
9.2264e-07 -0
9.2341e-07 -0
9.2418e-07 -0
9.2495e-07 -0
9.2572e-07 -0
9.265e-07 -0
9.2727e-07 -0
9.2804e-07 -0
9.2882e-07 -0
9.2959e-07 -0
9.3037e-07 -0
9.3114e-07 -0
9.3192e-07 -0
9.327e-07 -0
9.3348e-07 -0
9.3426e-07 -0
9.3503e-07 -0
9.3581e-07 -0
9.366e-07 -0
9.3738e-07 -0
9.3816e-07 -0
9.3894e-07 -0
9.3972e-07 -0
9.4051e-07 -0
9.4129e-07 -0
9.4208e-07 -0
9.4286e-07 -0
9.4365e-07 -0
9.4444e-07 -0
9.4523e-07 -0
9.4601e-07 -0
9.468e-07 -0
9.4759e-07 -0
9.4838e-07 -0
9.4918e-07 -0
9.4997e-07 -0
9.5076e-07 -0
9.5155e-07 -0
9.5235e-07 -0
9.5314e-07 -0
9.5394e-07 -0
9.5473e-07 -0
9.5553e-07 -0
9.5633e-07 -0
9.5712e-07 -0
9.5792e-07 -0
9.5872e-07 -0
9.5952e-07 -0
9.6032e-07 -0
9.6112e-07 -0
9.6192e-07 -0
9.6273e-07 -0
9.6353e-07 -0
9.6433e-07 -0
9.6514e-07 -0
9.6594e-07 -0
9.6675e-07 -0
9.6756e-07 -0
9.6836e-07 -0
9.6917e-07 -0
9.6998e-07 -0
9.7079e-07 -0
9.716e-07 -0
9.7241e-07 -0
9.7322e-07 -0
9.7403e-07 -0
9.7484e-07 -0
9.7566e-07 -0
9.7647e-07 -0
9.7729e-07 -0
9.781e-07 -0
9.7892e-07 -0
9.7973e-07 -0
9.8055e-07 -0
9.8137e-07 -0
9.8219e-07 -0
9.8301e-07 -0
9.8383e-07 -0
9.8465e-07 -0
9.8547e-07 -0
9.8629e-07 -0
9.8711e-07 -0
9.8794e-07 -0
9.8876e-07 -0
9.8959e-07 -0
9.9041e-07 -0
9.9124e-07 -0
9.9207e-07 -0
9.9289e-07 -0
9.9372e-07 -0
9.9455e-07 -0
9.9538e-07 -0
9.9621e-07 -0
9.9704e-07 -0
9.9787e-07 -0
9.9871e-07 -0
9.9954e-07 -0
1.0004e-06 -0
1.0012e-06 -0
1.002e-06 -0
1.0029e-06 -0
1.0037e-06 -0
1.0046e-06 -0
1.0054e-06 -0
1.0062e-06 -0
1.0071e-06 -0
1.0079e-06 -0
1.0087e-06 -0
1.0096e-06 -0
1.0104e-06 -0
1.0113e-06 -0
1.0121e-06 -0
1.013e-06 -0
1.0138e-06 -0
1.0147e-06 -0
1.0155e-06 -0
1.0163e-06 -0
1.0172e-06 -0
1.018e-06 -0
1.0189e-06 -0
1.0197e-06 -0
1.0206e-06 -0
1.0214e-06 -0
1.0223e-06 -0
1.0232e-06 -0
1.024e-06 -0
1.0249e-06 -0
1.0257e-06 -0
1.0266e-06 -0
1.0274e-06 -0
1.0283e-06 -0
1.0291e-06 -0
1.03e-06 -0
