2.8e-07 3.9372e-22
2.8019e-07 3.8375e-22
2.8037e-07 3.7531e-22
2.8056e-07 3.6927e-22
2.8075e-07 3.6509e-22
2.8094e-07 3.6115e-22
2.8112e-07 3.5424e-22
2.8131e-07 3.4444e-22
2.815e-07 3.3483e-22
2.8169e-07 3.2727e-22
2.8187e-07 3.2206e-22
2.8206e-07 3.1857e-22
2.8225e-07 3.151e-22
2.8244e-07 3.1008e-22
2.8263e-07 3.0433e-22
2.8282e-07 2.9983e-22
2.8301e-07 2.9736e-22
2.8319e-07 2.9624e-22
2.8338e-07 2.9343e-22
2.8357e-07 2.8604e-22
2.8376e-07 2.7641e-22
2.8395e-07 2.6781e-22
2.8414e-07 2.6143e-22
2.8433e-07 2.5693e-22
2.8452e-07 2.5308e-22
2.8471e-07 2.4881e-22
2.849e-07 2.4352e-22
2.8509e-07 2.3723e-22
2.8528e-07 2.3121e-22
2.8547e-07 2.2671e-22
2.8566e-07 2.2384e-22
2.8585e-07 2.2138e-22
2.8604e-07 2.1806e-22
2.8623e-07 2.137e-22
2.8642e-07 2.089e-22
2.8662e-07 2.0432e-22
2.8681e-07 2.0045e-22
2.87e-07 1.9724e-22
2.8719e-07 1.9372e-22
2.8738e-07 1.8877e-22
2.8757e-07 1.8264e-22
2.8777e-07 1.7661e-22
2.8796e-07 1.7153e-22
2.8815e-07 1.6749e-22
2.8834e-07 1.6423e-22
2.8853e-07 1.613e-22
2.8873e-07 1.5822e-22
2.8892e-07 1.5486e-22
2.8911e-07 1.5142e-22
2.8931e-07 1.479e-22
2.895e-07 1.4431e-22
2.8969e-07 1.4098e-22
2.8989e-07 1.3814e-22
2.9008e-07 1.3557e-22
2.9027e-07 1.3305e-22
2.9047e-07 1.306e-22
2.9066e-07 1.2806e-22
2.9085e-07 1.2516e-22
2.9105e-07 1.2189e-22
2.9124e-07 1.1831e-22
2.9144e-07 1.1454e-22
2.9163e-07 1.1088e-22
2.9183e-07 1.0773e-22
2.9202e-07 1.0513e-22
2.9222e-07 1.0295e-22
2.9241e-07 1.0122e-22
2.9261e-07 9.969e-23
2.928e-07 9.7778e-23
2.93e-07 9.5244e-23
2.9319e-07 9.2352e-23
2.9339e-07 8.9386e-23
2.9358e-07 8.6552e-23
2.9378e-07 8.414e-23
2.9398e-07 8.2322e-23
2.9417e-07 8.0865e-23
2.9437e-07 7.9365e-23
2.9456e-07 7.7689e-23
2.9476e-07 7.5837e-23
2.9496e-07 7.3758e-23
2.9515e-07 7.1426e-23
2.9535e-07 6.9024e-23
2.9555e-07 6.6902e-23
2.9575e-07 6.515e-23
2.9594e-07 6.3435e-23
2.9614e-07 6.1556e-23
2.9634e-07 5.9858e-23
2.9654e-07 5.8657e-23
2.9673e-07 5.7656e-23
2.9693e-07 5.6323e-23
2.9713e-07 5.4617e-23
2.9733e-07 5.2858e-23
2.9753e-07 5.1179e-23
2.9773e-07 4.9599e-23
2.9792e-07 4.8177e-23
2.9812e-07 4.6948e-23
2.9832e-07 4.5874e-23
2.9852e-07 4.4917e-23
2.9872e-07 4.4032e-23
2.9892e-07 4.3015e-23
2.9912e-07 4.1699e-23
2.9932e-07 4.0194e-23
2.9952e-07 3.8762e-23
2.9972e-07 3.7607e-23
2.9992e-07 3.6751e-23
3.0012e-07 3.6002e-23
3.0032e-07 3.5212e-23
3.0052e-07 3.4379e-23
3.0072e-07 3.3426e-23
3.0092e-07 3.2282e-23
3.0112e-07 3.1082e-23
3.0132e-07 3.0036e-23
3.0152e-07 2.9241e-23
3.0173e-07 2.8676e-23
3.0193e-07 2.8208e-23
3.0213e-07 2.7655e-23
3.0233e-07 2.6933e-23
3.0253e-07 2.6058e-23
3.0273e-07 2.5093e-23
3.0294e-07 2.4138e-23
3.0314e-07 2.3317e-23
3.0334e-07 2.2687e-23
3.0354e-07 2.2221e-23
3.0375e-07 2.1887e-23
3.0395e-07 2.1609e-23
3.0415e-07 2.1214e-23
3.0435e-07 2.0627e-23
3.0456e-07 1.9909e-23
3.0476e-07 1.91e-23
3.0496e-07 1.8276e-23
3.0517e-07 1.7541e-23
3.0537e-07 1.698e-23
3.0557e-07 1.6627e-23
3.0578e-07 1.6399e-23
3.0598e-07 1.6188e-23
3.0619e-07 1.5975e-23
3.0639e-07 1.5679e-23
3.066e-07 1.5212e-23
3.068e-07 1.4632e-23
3.0701e-07 1.3979e-23
3.0721e-07 1.3309e-23
3.0742e-07 1.2744e-23
3.0762e-07 1.2366e-23
3.0783e-07 1.2183e-23
3.0803e-07 1.2085e-23
3.0824e-07 1.1908e-23
3.0844e-07 1.1637e-23
3.0865e-07 1.141e-23
3.0885e-07 1.1212e-23
3.0906e-07 1.0908e-23
3.0927e-07 1.0427e-23
3.0947e-07 9.8204e-24
3.0968e-07 9.2869e-24
3.0989e-07 8.9832e-24
3.1009e-07 8.8654e-24
3.103e-07 8.7773e-24
3.1051e-07 8.5898e-24
3.1071e-07 8.354e-24
3.1092e-07 8.1644e-24
3.1113e-07 8.0538e-24
3.1134e-07 7.9788e-24
3.1155e-07 7.7858e-24
3.1175e-07 7.4218e-24
3.1196e-07 7.0199e-24
3.1217e-07 6.6874e-24
3.1238e-07 6.4132e-24
3.1259e-07 6.1712e-24
3.1279e-07 5.9862e-24
3.13e-07 5.8866e-24
3.1321e-07 5.896e-24
3.1342e-07 5.992e-24
3.1363e-07 6.0028e-24
3.1384e-07 5.8033e-24
3.1405e-07 5.4582e-24
3.1426e-07 5.0672e-24
3.1447e-07 4.7061e-24
3.1468e-07 4.447e-24
3.1489e-07 4.3181e-24
3.151e-07 4.3069e-24
3.1531e-07 4.4063e-24
3.1552e-07 4.5075e-24
3.1573e-07 4.4193e-24
3.1594e-07 4.1422e-24
3.1615e-07 3.839e-24
3.1636e-07 3.5881e-24
3.1657e-07 3.3936e-24
3.1679e-07 3.3029e-24
3.17e-07 3.3298e-24
3.1721e-07 3.3883e-24
3.1742e-07 3.4403e-24
3.1763e-07 3.4645e-24
3.1784e-07 3.3578e-24
3.1806e-07 3.1195e-24
3.1827e-07 2.8295e-24
3.1848e-07 2.5527e-24
3.1869e-07 2.3393e-24
3.1891e-07 2.2047e-24
3.1912e-07 2.1928e-24
3.1933e-07 2.3419e-24
3.1955e-07 2.5287e-24
3.1976e-07 2.6233e-24
3.1997e-07 2.6427e-24
3.2019e-07 2.5342e-24
3.204e-07 2.2751e-24
3.2061e-07 1.9825e-24
3.2083e-07 1.7224e-24
3.2104e-07 1.527e-24
3.2126e-07 1.4309e-24
3.2147e-07 1.421e-24
3.2168e-07 1.4973e-24
3.219e-07 1.7031e-24
3.2211e-07 1.9199e-24
3.2233e-07 1.976e-24
3.2254e-07 1.9534e-24
3.2276e-07 1.8926e-24
3.2297e-07 1.6915e-24
3.2319e-07 1.3967e-24
3.2341e-07 1.1301e-24
3.2362e-07 9.4268e-25
3.2384e-07 8.4983e-25
3.2405e-07 8.5946e-25
3.2427e-07 9.3141e-25
3.2449e-07 1.0392e-24
3.247e-07 1.2224e-24
3.2492e-07 1.3928e-24
3.2514e-07 1.3871e-24
3.2535e-07 1.2793e-24
3.2557e-07 1.1771e-24
3.2579e-07 1.0415e-24
3.2601e-07 8.6438e-25
3.2622e-07 7.0675e-25
3.2644e-07 5.985e-25
3.2666e-07 5.4094e-25
3.2688e-07 5.4988e-25
3.271e-07 6.2568e-25
3.2731e-07 7.0249e-25
3.2753e-07 7.6407e-25
3.2775e-07 8.868e-25
3.2797e-07 1.0128e-24
3.2819e-07 9.88e-25
3.2841e-07 8.2767e-25
3.2863e-07 6.4505e-25
3.2885e-07 4.9849e-25
3.2907e-07 3.9545e-25
3.2928e-07 3.3235e-25
3.295e-07 3.0415e-25
3.2972e-07 3.0191e-25
3.2994e-07 3.313e-25
3.3016e-07 4.1626e-25
3.3039e-07 5.1586e-25
3.3061e-07 5.5726e-25
3.3083e-07 5.7737e-25
3.3105e-07 6.2297e-25
3.3127e-07 6.2257e-25
3.3149e-07 5.3651e-25
3.3171e-07 4.2119e-25
3.3193e-07 3.2319e-25
3.3215e-07 2.5211e-25
3.3238e-07 2.0664e-25
3.326e-07 1.873e-25
3.3282e-07 1.9474e-25
3.3304e-07 2.1859e-25
3.3326e-07 2.5548e-25
3.3349e-07 3.2587e-25
3.3371e-07 4.0925e-25
3.3393e-07 4.2755e-25
3.3415e-07 3.6977e-25
3.3438e-07 2.9225e-25
3.346e-07 2.3116e-25
3.3482e-07 1.8555e-25
3.3505e-07 1.4837e-25
3.3527e-07 1.2046e-25
3.3549e-07 1.0404e-25
3.3572e-07 9.7064e-26
3.3594e-07 9.9667e-26
3.3617e-07 1.1902e-25
3.3639e-07 1.5173e-25
3.3662e-07 1.775e-25
3.3684e-07 1.9974e-25
3.3706e-07 2.4325e-25
3.3729e-07 2.8449e-25
3.3752e-07 2.7642e-25
3.3774e-07 2.2812e-25
3.3797e-07 1.7411e-25
3.3819e-07 1.3084e-25
3.3842e-07 1.0009e-25
3.3864e-07 8.0726e-26
3.3887e-07 7.0482e-26
3.391e-07 6.7412e-26
3.3932e-07 7.0449e-26
3.3955e-07 7.768e-26
3.3977e-07 9.25e-26
3.4e-07 1.2071e-25
3.4023e-07 1.4377e-25
3.4046e-07 1.3866e-25
3.4068e-07 1.1352e-25
3.4091e-07 8.6425e-26
3.4114e-07 6.5324e-26
3.4137e-07 5.0576e-26
3.4159e-07 4.1153e-26
3.4182e-07 3.6031e-26
3.4205e-07 3.3449e-26
3.4228e-07 3.1228e-26
3.4251e-07 2.9715e-26
3.4273e-07 3.1694e-26
3.4296e-07 3.8145e-26
3.4319e-07 4.6036e-26
3.4342e-07 5.3516e-26
3.4365e-07 6.7393e-26
3.4388e-07 9.1145e-26
3.4411e-07 1.0673e-25
3.4434e-07 9.9612e-26
3.4457e-07 7.9988e-26
3.448e-07 6.0841e-26
3.4503e-07 4.6714e-26
3.4526e-07 3.7587e-26
3.4549e-07 3.2534e-26
3.4572e-07 2.9431e-26
3.4595e-07 2.6083e-26
3.4618e-07 2.2604e-26
3.4641e-07 2.0279e-26
3.4664e-07 1.9925e-26
3.4688e-07 2.3194e-26
3.4711e-07 3.033e-26
3.4734e-07 3.5346e-26
3.4757e-07 3.3222e-26
3.478e-07 2.6893e-26
3.4803e-07 2.0588e-26
3.4827e-07 1.5988e-26
3.485e-07 1.3133e-26
3.4873e-07 1.1392e-26
3.4896e-07 1.0238e-26
3.492e-07 9.9846e-27
3.4943e-07 1.0751e-26
3.4966e-07 1.1262e-26
3.499e-07 1.0864e-26
3.5013e-07 1.0355e-26
3.5036e-07 1.0179e-26
3.506e-07 1.0359e-26
3.5083e-07 1.1861e-26
3.5107e-07 1.6934e-26
3.513e-07 2.5395e-26
3.5154e-07 3.0967e-26
3.5177e-07 2.9376e-26
3.52e-07 2.3923e-26
3.5224e-07 1.8818e-26
3.5247e-07 1.544e-26
3.5271e-07 1.3017e-26
3.5295e-07 1.0721e-26
3.5318e-07 8.6669e-27
3.5342e-07 7.0645e-27
3.5365e-07 5.7446e-27
3.5389e-07 4.6353e-27
3.5412e-07 3.8851e-27
3.5436e-07 3.6291e-27
3.546e-07 3.9446e-27
3.5483e-07 4.6938e-27
3.5507e-07 5.2363e-27
3.5531e-07 5.0206e-27
3.5555e-07 4.2578e-27
3.5578e-07 3.4619e-27
3.5602e-07 2.8834e-27
3.5626e-07 2.6009e-27
3.565e-07 2.814e-27
3.5673e-07 3.3589e-27
3.5697e-07 3.5664e-27
3.5721e-07 3.2992e-27
3.5745e-07 2.9501e-27
3.5769e-07 2.616e-27
3.5793e-07 2.2052e-27
3.5816e-07 1.8153e-27
3.584e-07 1.5691e-27
3.5864e-07 1.5678e-27
3.5888e-07 2.0147e-27
3.5912e-07 3.1458e-27
3.5936e-07 4.7145e-27
3.596e-07 5.7176e-27
3.5984e-07 5.6586e-27
3.6008e-07 5.0699e-27
3.6032e-07 4.3662e-27
3.6056e-07 3.6209e-27
3.608e-07 2.9479e-27
3.6104e-07 2.4237e-27
3.6128e-07 1.9939e-27
3.6153e-07 1.6381e-27
3.6177e-07 1.3768e-27
3.6201e-07 1.2097e-27
3.6225e-07 1.1286e-27
3.6249e-07 1.0633e-27
3.6273e-07 9.8443e-28
3.6298e-07 9.3695e-28
3.6322e-07 9.3639e-28
3.6346e-07 9.537e-28
3.637e-07 9.4094e-28
3.6395e-07 8.829e-28
3.6419e-07 8.6094e-28
3.6443e-07 9.7517e-28
3.6468e-07 1.1935e-27
3.6492e-07 1.3142e-27
3.6516e-07 1.2664e-27
3.6541e-07 1.1745e-27
3.6565e-07 1.0643e-27
3.6589e-07 9.1403e-28
3.6614e-07 7.9238e-28
3.6638e-07 7.31e-28
3.6663e-07 7.0816e-28
3.6687e-07 7.0125e-28
3.6712e-07 7.1016e-28
3.6736e-07 7.3104e-28
3.6761e-07 7.3388e-28
3.6785e-07 7.0069e-28
3.681e-07 6.4865e-28
3.6834e-07 6.0627e-28
3.6859e-07 5.8947e-28
3.6884e-07 5.8656e-28
3.6908e-07 5.8912e-28
3.6933e-07 5.9978e-28
3.6957e-07 6.2052e-28
3.6982e-07 6.6686e-28
3.7007e-07 7.8345e-28
3.7031e-07 1.0126e-27
3.7056e-07 1.2179e-27
3.7081e-07 1.2756e-27
3.7106e-07 1.252e-27
3.713e-07 1.1652e-27
3.7155e-07 1.0419e-27
3.718e-07 9.2163e-28
3.7205e-07 8.2765e-28
3.723e-07 7.6112e-28
3.7255e-07 7.0748e-28
3.7279e-07 6.677e-28
3.7304e-07 6.5267e-28
3.7329e-07 6.6429e-28
3.7354e-07 6.9115e-28
3.7379e-07 6.9389e-28
3.7404e-07 6.7011e-28
3.7429e-07 6.5673e-28
3.7454e-07 6.4631e-28
3.7479e-07 6.4164e-28
3.7504e-07 7.2391e-28
3.7529e-07 9.5637e-28
3.7554e-07 1.1429e-27
3.7579e-07 1.1353e-27
3.7604e-07 1.1203e-27
3.7629e-07 1.0842e-27
3.7654e-07 9.6829e-28
3.7679e-07 8.7593e-28
3.7705e-07 8.5358e-28
3.773e-07 8.0446e-28
3.7755e-07 7.5326e-28
3.778e-07 7.3465e-28
3.7805e-07 6.9119e-28
3.7831e-07 6.423e-28
3.7856e-07 6.1066e-28
3.7881e-07 5.7676e-28
3.7906e-07 5.4854e-28
3.7932e-07 5.3942e-28
3.7957e-07 5.3569e-28
3.7982e-07 5.3225e-28
3.8008e-07 5.2997e-28
3.8033e-07 5.3003e-28
3.8058e-07 5.3163e-28
3.8084e-07 5.3366e-28
3.8109e-07 5.3662e-28
3.8135e-07 5.4058e-28
3.816e-07 5.4335e-28
3.8186e-07 5.4328e-28
3.8211e-07 5.4219e-28
3.8237e-07 5.42e-28
3.8262e-07 5.4346e-28
3.8288e-07 5.4499e-28
3.8313e-07 5.458e-28
3.8339e-07 5.4998e-28
3.8364e-07 5.5815e-28
3.839e-07 5.6595e-28
3.8416e-07 5.6838e-28
3.8441e-07 5.6704e-28
3.8467e-07 5.6867e-28
3.8493e-07 5.7001e-28
3.8518e-07 5.6693e-28
3.8544e-07 5.6157e-28
3.857e-07 5.5701e-28
3.8595e-07 5.5488e-28
3.8621e-07 5.5037e-28
3.8647e-07 5.5013e-28
3.8673e-07 5.8586e-28
3.8699e-07 6.3364e-28
3.8724e-07 6.657e-28
3.875e-07 7.2603e-28
3.8776e-07 8.1512e-28
3.8802e-07 8.4651e-28
3.8828e-07 8.1828e-28
3.8854e-07 7.7698e-28
3.888e-07 7.871e-28
3.8906e-07 8.9054e-28
3.8932e-07 9.6879e-28
3.8958e-07 9.482e-28
3.8984e-07 9.3615e-28
3.901e-07 9.8905e-28
3.9036e-07 1.017e-27
3.9062e-07 9.6968e-28
3.9088e-07 9.3397e-28
3.9114e-07 9.4369e-28
3.914e-07 9.7712e-28
3.9166e-07 1.0409e-27
3.9192e-07 1.1024e-27
3.9218e-07 1.1038e-27
3.9245e-07 1.0496e-27
3.9271e-07 1.0107e-27
3.9297e-07 9.9311e-28
3.9323e-07 9.7045e-28
3.935e-07 9.8322e-28
3.9376e-07 1.0375e-27
3.9402e-07 1.0938e-27
3.9428e-07 1.1578e-27
3.9455e-07 1.2106e-27
3.9481e-07 1.223e-27
3.9507e-07 1.1984e-27
3.9534e-07 1.2107e-27
3.956e-07 1.2026e-27
3.9587e-07 1.1596e-27
3.9613e-07 1.1531e-27
3.9639e-07 1.1439e-27
3.9666e-07 1.1523e-27
3.9692e-07 1.1741e-27
3.9719e-07 1.1763e-27
3.9745e-07 1.1843e-27
3.9772e-07 1.1611e-27
3.9798e-07 1.0757e-27
3.9825e-07 9.9362e-28
3.9852e-07 1.0048e-27
3.9878e-07 1.1001e-27
3.9905e-07 1.2004e-27
3.9931e-07 1.2273e-27
3.9958e-07 1.2024e-27
3.9985e-07 1.1729e-27
4.0011e-07 1.1782e-27
4.0038e-07 1.2371e-27
4.0065e-07 1.297e-27
4.0092e-07 1.3224e-27
4.0118e-07 1.3333e-27
4.0145e-07 1.3615e-27
4.0172e-07 1.4086e-27
4.0199e-07 1.4556e-27
4.0226e-07 1.4889e-27
4.0252e-07 1.5024e-27
4.0279e-07 1.499e-27
4.0306e-07 1.4818e-27
4.0333e-07 1.4563e-27
4.036e-07 1.4378e-27
4.0387e-07 1.4374e-27
4.0414e-07 1.4454e-27
4.0441e-07 1.446e-27
4.0468e-07 1.4403e-27
4.0495e-07 1.4392e-27
4.0522e-07 1.4508e-27
4.0549e-07 1.4798e-27
4.0576e-07 1.5251e-27
4.0603e-07 1.58e-27
4.063e-07 1.6423e-27
4.0657e-07 1.7223e-27
4.0684e-07 1.8297e-27
4.0712e-07 1.956e-27
4.0739e-07 2.0832e-27
4.0766e-07 2.2022e-27
4.0793e-07 2.3114e-27
4.082e-07 2.4068e-27
4.0848e-07 2.4841e-27
4.0875e-07 2.5473e-27
4.0902e-07 2.6098e-27
4.0929e-07 2.671e-27
4.0957e-07 2.7176e-27
4.0984e-07 2.7415e-27
4.1011e-07 2.7503e-27
4.1039e-07 2.7564e-27
4.1066e-07 2.7607e-27
4.1094e-07 2.7596e-27
4.1121e-07 2.7516e-27
4.1149e-07 2.737e-27
4.1176e-07 2.7134e-27
4.1203e-07 2.674e-27
4.1231e-07 2.6152e-27
4.1258e-07 2.5453e-27
4.1286e-07 2.4779e-27
4.1314e-07 2.428e-27
4.1341e-07 2.4088e-27
4.1369e-07 2.427e-27
4.1396e-07 2.4834e-27
4.1424e-07 2.564e-27
4.1452e-07 2.6586e-27
4.1479e-07 2.7671e-27
4.1507e-07 2.8898e-27
4.1535e-07 3.0221e-27
4.1562e-07 3.1499e-27
4.159e-07 3.2716e-27
4.1618e-07 3.3807e-27
4.1646e-07 3.4797e-27
4.1673e-07 3.5741e-27
4.1701e-07 3.658e-27
4.1729e-07 3.7299e-27
4.1757e-07 3.7876e-27
4.1785e-07 3.8221e-27
4.1813e-07 3.8239e-27
4.1841e-07 3.7945e-27
4.1869e-07 3.745e-27
4.1897e-07 3.705e-27
4.1924e-07 3.6873e-27
4.1952e-07 3.6902e-27
4.198e-07 3.7148e-27
4.2008e-07 3.7557e-27
4.2037e-07 3.808e-27
4.2065e-07 3.8818e-27
4.2093e-07 4e-27
4.2121e-07 4.1657e-27
4.2149e-07 4.362e-27
4.2177e-07 4.5703e-27
4.2205e-07 4.7834e-27
4.2233e-07 5.013e-27
4.2262e-07 5.2714e-27
4.229e-07 5.5438e-27
4.2318e-07 5.8058e-27
4.2346e-07 6.0511e-27
4.2374e-07 6.2949e-27
4.2403e-07 6.5465e-27
4.2431e-07 6.7939e-27
4.2459e-07 7.018e-27
4.2488e-07 7.209e-27
4.2516e-07 7.3693e-27
4.2544e-07 7.48e-27
4.2573e-07 7.5221e-27
4.2601e-07 7.4991e-27
4.263e-07 7.4492e-27
4.2658e-07 7.3945e-27
4.2687e-07 7.3339e-27
4.2715e-07 7.2433e-27
4.2744e-07 7.1128e-27
4.2772e-07 6.9686e-27
4.2801e-07 6.8291e-27
4.2829e-07 6.7034e-27
4.2858e-07 6.5983e-27
4.2886e-07 6.5236e-27
4.2915e-07 6.4733e-27
4.2944e-07 6.4539e-27
4.2972e-07 6.4865e-27
4.3001e-07 6.5766e-27
4.303e-07 6.7208e-27
4.3058e-07 6.9124e-27
4.3087e-07 7.1491e-27
4.3116e-07 7.4248e-27
4.3145e-07 7.7213e-27
4.3174e-07 8.0143e-27
4.3202e-07 8.288e-27
4.3231e-07 8.5379e-27
4.326e-07 8.7532e-27
4.3289e-07 8.9238e-27
4.3318e-07 9.0561e-27
4.3347e-07 9.1549e-27
4.3376e-07 9.203e-27
4.3405e-07 9.1829e-27
4.3434e-07 9.1167e-27
4.3463e-07 9.0556e-27
4.3492e-07 9.027e-27
4.3521e-07 9.0167e-27
4.355e-07 9.0093e-27
4.3579e-07 9.0144e-27
4.3608e-07 9.0588e-27
4.3637e-07 9.163e-27
4.3666e-07 9.3259e-27
4.3695e-07 9.5361e-27
4.3724e-07 9.8005e-27
4.3754e-07 1.0131e-26
4.3783e-07 1.0525e-26
4.3812e-07 1.0983e-26
4.3841e-07 1.1527e-26
4.387e-07 1.2141e-26
4.39e-07 1.2752e-26
4.3929e-07 1.3331e-26
4.3958e-07 1.3879e-26
4.3988e-07 1.4461e-26
4.4017e-07 1.5072e-26
4.4046e-07 1.565e-26
4.4076e-07 1.6214e-26
4.4105e-07 1.6771e-26
4.4135e-07 1.7347e-26
4.4164e-07 1.7852e-26
4.4194e-07 1.8273e-26
4.4223e-07 1.8708e-26
4.4253e-07 1.918e-26
4.4282e-07 1.9482e-26
4.4312e-07 1.9398e-26
4.4341e-07 1.9135e-26
4.4371e-07 1.8894e-26
4.44e-07 1.8616e-26
4.443e-07 1.8366e-26
4.446e-07 1.8057e-26
4.4489e-07 1.7678e-26
4.4519e-07 1.7233e-26
4.4549e-07 1.6803e-26
4.4579e-07 1.6427e-26
4.4608e-07 1.605e-26
4.4638e-07 1.5795e-26
4.4668e-07 1.5619e-26
4.4698e-07 1.5586e-26
4.4728e-07 1.5697e-26
4.4757e-07 1.5918e-26
4.4787e-07 1.6236e-26
4.4817e-07 1.6638e-26
4.4847e-07 1.7116e-26
4.4877e-07 1.7657e-26
4.4907e-07 1.8219e-26
4.4937e-07 1.8766e-26
4.4967e-07 1.9289e-26
4.4997e-07 1.9789e-26
4.5027e-07 2.0233e-26
4.5057e-07 2.056e-26
4.5087e-07 2.0756e-26
4.5117e-07 2.083e-26
4.5147e-07 2.0815e-26
4.5177e-07 2.0769e-26
4.5208e-07 2.0714e-26
4.5238e-07 2.0657e-26
4.5268e-07 2.0592e-26
4.5298e-07 2.0501e-26
4.5328e-07 2.0378e-26
4.5359e-07 2.0256e-26
4.5389e-07 2.0257e-26
4.5419e-07 2.0493e-26
4.545e-07 2.0945e-26
4.548e-07 2.1526e-26
4.551e-07 2.2139e-26
4.5541e-07 2.2693e-26
4.5571e-07 2.3196e-26
4.5601e-07 2.3785e-26
4.5632e-07 2.4555e-26
4.5662e-07 2.5527e-26
4.5693e-07 2.6661e-26
4.5723e-07 2.7886e-26
4.5754e-07 2.9145e-26
4.5784e-07 3.0406e-26
4.5815e-07 3.1655e-26
4.5846e-07 3.2893e-26
4.5876e-07 3.4109e-26
4.5907e-07 3.5329e-26
4.5937e-07 3.6565e-26
4.5968e-07 3.779e-26
4.5999e-07 3.897e-26
4.6029e-07 4.0056e-26
4.606e-07 4.0961e-26
4.6091e-07 4.1669e-26
4.6122e-07 4.2179e-26
4.6152e-07 4.247e-26
4.6183e-07 4.2553e-26
4.6214e-07 4.246e-26
4.6245e-07 4.2223e-26
4.6276e-07 4.1845e-26
4.6307e-07 4.1272e-26
4.6338e-07 4.0498e-26
4.6368e-07 3.96e-26
4.6399e-07 3.8679e-26
4.643e-07 3.7786e-26
4.6461e-07 3.6944e-26
4.6492e-07 3.6174e-26
4.6523e-07 3.5511e-26
4.6554e-07 3.5014e-26
4.6586e-07 3.4754e-26
4.6617e-07 3.4758e-26
4.6648e-07 3.5022e-26
4.6679e-07 3.5516e-26
4.671e-07 3.6144e-26
4.6741e-07 3.688e-26
4.6772e-07 3.7679e-26
4.6804e-07 3.8551e-26
4.6835e-07 3.9502e-26
4.6866e-07 4.0501e-26
4.6897e-07 4.1443e-26
4.6929e-07 4.2277e-26
4.696e-07 4.3092e-26
4.6991e-07 4.3595e-26
4.7023e-07 4.3804e-26
4.7054e-07 4.3924e-26
4.7086e-07 4.4034e-26
4.7117e-07 4.4059e-26
4.7148e-07 4.3942e-26
4.718e-07 4.3816e-26
4.7211e-07 4.3802e-26
4.7243e-07 4.378e-26
4.7274e-07 4.38e-26
4.7306e-07 4.3945e-26
4.7338e-07 4.4157e-26
4.7369e-07 4.4515e-26
4.7401e-07 4.5042e-26
4.7432e-07 4.5675e-26
4.7464e-07 4.6498e-26
4.7496e-07 4.7461e-26
4.7527e-07 4.8618e-26
4.7559e-07 4.9966e-26
4.7591e-07 5.1497e-26
4.7623e-07 5.3183e-26
4.7654e-07 5.4993e-26
4.7686e-07 5.6917e-26
4.7718e-07 5.8924e-26
4.775e-07 6.1006e-26
4.7782e-07 6.3158e-26
4.7814e-07 6.535e-26
4.7846e-07 6.7604e-26
4.7878e-07 6.9929e-26
4.7909e-07 7.2289e-26
4.7941e-07 7.4655e-26
4.7973e-07 7.6932e-26
4.8005e-07 7.9071e-26
4.8038e-07 8.1091e-26
4.807e-07 8.298e-26
4.8102e-07 8.4687e-26
4.8134e-07 8.613e-26
4.8166e-07 8.7219e-26
4.8198e-07 8.7954e-26
4.823e-07 8.8358e-26
4.8262e-07 8.8432e-26
4.8295e-07 8.8206e-26
4.8327e-07 8.7733e-26
4.8359e-07 8.7047e-26
4.8391e-07 8.6204e-26
4.8424e-07 8.5298e-26
4.8456e-07 8.443e-26
4.8488e-07 8.353e-26
4.8521e-07 8.2364e-26
4.8553e-07 8.1085e-26
4.8585e-07 7.9774e-26
4.8618e-07 7.8673e-26
4.865e-07 7.7834e-26
4.8683e-07 7.7409e-26
4.8715e-07 7.7207e-26
4.8748e-07 7.7231e-26
4.878e-07 7.7477e-26
4.8813e-07 7.8023e-26
4.8846e-07 7.8803e-26
4.8878e-07 7.9791e-26
4.8911e-07 8.0899e-26
4.8943e-07 8.1941e-26
4.8976e-07 8.2905e-26
4.9009e-07 8.3925e-26
4.9041e-07 8.4921e-26
4.9074e-07 8.5825e-26
4.9107e-07 8.6614e-26
4.914e-07 8.7273e-26
4.9173e-07 8.7823e-26
4.9205e-07 8.8289e-26
4.9238e-07 8.8594e-26
4.9271e-07 8.8864e-26
4.9304e-07 8.9072e-26
4.9337e-07 8.9257e-26
4.937e-07 8.9473e-26
4.9403e-07 8.9746e-26
4.9436e-07 9.0088e-26
4.9469e-07 9.0502e-26
4.9502e-07 9.101e-26
4.9535e-07 9.1709e-26
4.9568e-07 9.2635e-26
4.9601e-07 9.3771e-26
4.9634e-07 9.5111e-26
4.9667e-07 9.6647e-26
4.97e-07 9.8388e-26
4.9733e-07 1.0035e-25
4.9767e-07 1.0256e-25
4.98e-07 1.0505e-25
4.9833e-07 1.0775e-25
4.9866e-07 1.1063e-25
4.99e-07 1.1367e-25
4.9933e-07 1.1687e-25
4.9966e-07 1.2016e-25
5e-07 1.2369e-25
5.0033e-07 1.273e-25
5.0066e-07 1.3102e-25
5.01e-07 1.3481e-25
5.0133e-07 1.3901e-25
5.0167e-07 1.4352e-25
5.02e-07 1.4726e-25
5.0234e-07 1.5059e-25
5.0267e-07 1.5445e-25
5.0301e-07 1.585e-25
5.0334e-07 1.6323e-25
5.0368e-07 1.6805e-25
5.0402e-07 1.7114e-25
5.0435e-07 1.7223e-25
5.0469e-07 1.72e-25
5.0503e-07 1.717e-25
5.0536e-07 1.7235e-25
5.057e-07 1.7372e-25
5.0604e-07 1.7413e-25
5.0637e-07 1.7331e-25
5.0671e-07 1.7335e-25
5.0705e-07 1.7318e-25
5.0739e-07 1.7239e-25
5.0773e-07 1.7103e-25
5.0807e-07 1.6926e-25
5.0841e-07 1.6765e-25
5.0875e-07 1.6603e-25
5.0909e-07 1.6454e-25
5.0942e-07 1.6344e-25
5.0976e-07 1.6237e-25
5.1011e-07 1.6101e-25
5.1045e-07 1.6014e-25
5.1079e-07 1.5917e-25
5.1113e-07 1.5915e-25
5.1147e-07 1.5895e-25
5.1181e-07 1.5918e-25
5.1215e-07 1.5985e-25
5.1249e-07 1.6046e-25
5.1284e-07 1.613e-25
5.1318e-07 1.6218e-25
5.1352e-07 1.6326e-25
5.1386e-07 1.6442e-25
5.1421e-07 1.6571e-25
5.1455e-07 1.6699e-25
5.1489e-07 1.6831e-25
5.1524e-07 1.6961e-25
5.1558e-07 1.7084e-25
5.1592e-07 1.7199e-25
5.1627e-07 1.7312e-25
5.1661e-07 1.7421e-25
5.1696e-07 1.7525e-25
5.173e-07 1.7628e-25
5.1765e-07 1.7733e-25
5.1799e-07 1.7842e-25
5.1834e-07 1.7955e-25
5.1869e-07 1.8068e-25
5.1903e-07 1.8183e-25
5.1938e-07 1.8307e-25
5.1972e-07 1.8439e-25
5.2007e-07 1.8581e-25
5.2042e-07 1.8735e-25
5.2077e-07 1.8903e-25
5.2111e-07 1.9088e-25
5.2146e-07 1.9291e-25
5.2181e-07 1.9515e-25
5.2216e-07 1.9756e-25
5.2251e-07 2.0016e-25
5.2285e-07 2.0299e-25
5.232e-07 2.0614e-25
5.2355e-07 2.0959e-25
5.239e-07 2.1319e-25
5.2425e-07 2.1704e-25
5.246e-07 2.2051e-25
5.2495e-07 2.2384e-25
5.253e-07 2.2696e-25
5.2565e-07 2.3007e-25
5.26e-07 2.3347e-25
5.2635e-07 2.373e-25
5.2671e-07 2.4145e-25
5.2706e-07 2.4535e-25
5.2741e-07 2.4879e-25
5.2776e-07 2.5223e-25
5.2811e-07 2.5564e-25
5.2847e-07 2.592e-25
5.2882e-07 2.6274e-25
5.2917e-07 2.661e-25
5.2953e-07 2.6931e-25
5.2988e-07 2.7244e-25
5.3023e-07 2.7542e-25
5.3059e-07 2.7812e-25
5.3094e-07 2.8046e-25
5.3129e-07 2.8258e-25
5.3165e-07 2.846e-25
5.32e-07 2.8637e-25
5.3236e-07 2.8794e-25
5.3271e-07 2.892e-25
5.3307e-07 2.9011e-25
5.3343e-07 2.9078e-25
5.3378e-07 2.913e-25
5.3414e-07 2.9161e-25
5.3449e-07 2.917e-25
5.3485e-07 2.9168e-25
5.3521e-07 2.9153e-25
5.3557e-07 2.9131e-25
5.3592e-07 2.9107e-25
5.3628e-07 2.9102e-25
5.3664e-07 2.9087e-25
5.37e-07 2.9092e-25
5.3736e-07 2.9103e-25
5.3771e-07 2.916e-25
5.3807e-07 2.924e-25
5.3843e-07 2.933e-25
5.3879e-07 2.9459e-25
5.3915e-07 2.9618e-25
5.3951e-07 2.9809e-25
5.3987e-07 3.006e-25
5.4023e-07 3.0337e-25
5.4059e-07 3.0669e-25
5.4095e-07 3.1039e-25
5.4131e-07 3.1337e-25
5.4167e-07 3.1553e-25
5.4204e-07 3.171e-25
5.424e-07 3.1836e-25
5.4276e-07 3.1997e-25
5.4312e-07 3.2189e-25
5.4349e-07 3.2541e-25
5.4385e-07 3.2772e-25
5.4421e-07 3.2847e-25
5.4457e-07 3.3029e-25
5.4494e-07 3.3205e-25
5.453e-07 3.3351e-25
5.4567e-07 3.3595e-25
5.4603e-07 3.3863e-25
5.4639e-07 3.4006e-25
5.4676e-07 3.405e-25
5.4712e-07 3.3995e-25
5.4749e-07 3.4028e-25
5.4785e-07 3.4112e-25
5.4822e-07 3.4178e-25
5.4859e-07 3.424e-25
5.4895e-07 3.4342e-25
5.4932e-07 3.4459e-25
5.4968e-07 3.4579e-25
5.5005e-07 3.4646e-25
5.5042e-07 3.4705e-25
5.5079e-07 3.4786e-25
5.5115e-07 3.4889e-25
5.5152e-07 3.4987e-25
5.5189e-07 3.5078e-25
5.5226e-07 3.519e-25
5.5263e-07 3.5322e-25
5.53e-07 3.5449e-25
5.5336e-07 3.5592e-25
5.5373e-07 3.5738e-25
5.541e-07 3.5898e-25
5.5447e-07 3.6077e-25
5.5484e-07 3.6263e-25
5.5521e-07 3.6457e-25
5.5558e-07 3.6671e-25
5.5596e-07 3.69e-25
5.5633e-07 3.7149e-25
5.567e-07 3.7417e-25
5.5707e-07 3.7707e-25
5.5744e-07 3.8017e-25
5.5781e-07 3.8346e-25
5.5819e-07 3.8687e-25
5.5856e-07 3.9043e-25
5.5893e-07 3.9411e-25
5.593e-07 3.9791e-25
5.5968e-07 4.0175e-25
5.6005e-07 4.058e-25
5.6042e-07 4.0973e-25
5.608e-07 4.1372e-25
5.6117e-07 4.176e-25
5.6155e-07 4.2132e-25
5.6192e-07 4.2513e-25
5.623e-07 4.2881e-25
5.6267e-07 4.3236e-25
5.6305e-07 4.3561e-25
5.6342e-07 4.3862e-25
5.638e-07 4.4164e-25
5.6418e-07 4.4469e-25
5.6455e-07 4.4746e-25
5.6493e-07 4.5014e-25
5.6531e-07 4.5261e-25
5.6568e-07 4.5507e-25
5.6606e-07 4.5775e-25
5.6644e-07 4.6052e-25
5.6682e-07 4.6331e-25
5.672e-07 4.6616e-25
5.6757e-07 4.6985e-25
5.6795e-07 4.7445e-25
5.6833e-07 4.8033e-25
5.6871e-07 4.8532e-25
5.6909e-07 4.8845e-25
5.6947e-07 4.9006e-25
5.6985e-07 4.9162e-25
5.7023e-07 4.9169e-25
5.7061e-07 4.9063e-25
5.7099e-07 4.9112e-25
5.7137e-07 4.9357e-25
5.7176e-07 4.976e-25
5.7214e-07 5.0165e-25
5.7252e-07 5.0263e-25
5.729e-07 5.0335e-25
5.7328e-07 5.0363e-25
5.7367e-07 5.0402e-25
5.7405e-07 5.0544e-25
5.7443e-07 5.0595e-25
5.7482e-07 5.0563e-25
5.752e-07 5.0408e-25
5.7558e-07 5.0325e-25
5.7597e-07 5.0225e-25
5.7635e-07 5.0008e-25
5.7674e-07 4.9814e-25
5.7712e-07 4.9747e-25
5.7751e-07 4.9585e-25
5.7789e-07 4.9304e-25
5.7828e-07 4.9021e-25
5.7866e-07 4.8812e-25
5.7905e-07 4.8656e-25
5.7944e-07 4.8445e-25
5.7982e-07 4.8157e-25
5.8021e-07 4.7922e-25
5.806e-07 4.7747e-25
5.8098e-07 4.7566e-25
5.8137e-07 4.7375e-25
5.8176e-07 4.7231e-25
5.8215e-07 4.7051e-25
5.8254e-07 4.6886e-25
5.8293e-07 4.6756e-25
5.8331e-07 4.6673e-25
5.837e-07 4.6572e-25
5.8409e-07 4.6477e-25
5.8448e-07 4.6386e-25
5.8487e-07 4.6305e-25
5.8526e-07 4.6223e-25
5.8565e-07 4.6228e-25
5.8605e-07 4.6348e-25
5.8644e-07 4.6498e-25
5.8683e-07 4.666e-25
5.8722e-07 4.6942e-25
5.8761e-07 4.7345e-25
5.88e-07 4.7935e-25
5.884e-07 4.8646e-25
5.8879e-07 4.9176e-25
5.8918e-07 4.9442e-25
5.8958e-07 4.9502e-25
5.8997e-07 4.963e-25
5.9036e-07 4.9464e-25
5.9076e-07 4.9341e-25
5.9115e-07 4.9524e-25
5.9155e-07 4.9792e-25
5.9194e-07 5.0218e-25
5.9234e-07 5.0405e-25
5.9273e-07 5.0147e-25
5.9313e-07 4.9982e-25
5.9352e-07 5.0128e-25
5.9392e-07 5.0901e-25
5.9431e-07 5.1938e-25
5.9471e-07 5.2651e-25
5.9511e-07 5.2667e-25
5.9551e-07 5.2449e-25
5.959e-07 5.2599e-25
5.963e-07 5.2741e-25
5.967e-07 5.3253e-25
5.971e-07 5.3783e-25
5.975e-07 5.3965e-25
5.9789e-07 5.425e-25
5.9829e-07 5.4314e-25
5.9869e-07 5.4447e-25
5.9909e-07 5.471e-25
5.9949e-07 5.4735e-25
5.9989e-07 5.4775e-25
6.0029e-07 5.4831e-25
6.0069e-07 5.4783e-25
6.0109e-07 5.4746e-25
6.015e-07 5.4757e-25
6.019e-07 5.4734e-25
6.023e-07 5.4572e-25
6.027e-07 5.4444e-25
6.031e-07 5.4385e-25
6.0351e-07 5.4168e-25
6.0391e-07 5.3954e-25
6.0431e-07 5.3773e-25
6.0471e-07 5.3567e-25
6.0512e-07 5.3321e-25
6.0552e-07 5.3087e-25
6.0593e-07 5.2801e-25
6.0633e-07 5.2487e-25
6.0674e-07 5.2165e-25
6.0714e-07 5.1839e-25
6.0755e-07 5.1501e-25
6.0795e-07 5.1142e-25
6.0836e-07 5.0778e-25
6.0876e-07 5.0409e-25
6.0917e-07 5.0032e-25
6.0958e-07 4.9657e-25
6.0998e-07 4.9289e-25
6.1039e-07 4.8958e-25
6.108e-07 4.8665e-25
6.112e-07 4.8394e-25
6.1161e-07 4.8128e-25
6.1202e-07 4.7858e-25
6.1243e-07 4.7584e-25
6.1284e-07 4.7298e-25
6.1325e-07 4.7006e-25
6.1366e-07 4.6717e-25
6.1407e-07 4.6434e-25
6.1448e-07 4.6151e-25
6.1489e-07 4.5871e-25
6.153e-07 4.5597e-25
6.1571e-07 4.5324e-25
6.1612e-07 4.5057e-25
6.1653e-07 4.4795e-25
6.1694e-07 4.4536e-25
6.1735e-07 4.4283e-25
6.1776e-07 4.4036e-25
6.1818e-07 4.3797e-25
6.1859e-07 4.3565e-25
6.19e-07 4.3337e-25
6.1942e-07 4.3119e-25
6.1983e-07 4.2908e-25
6.2024e-07 4.2698e-25
6.2066e-07 4.2495e-25
6.2107e-07 4.2294e-25
6.2149e-07 4.2097e-25
6.219e-07 4.1902e-25
6.2232e-07 4.1711e-25
6.2273e-07 4.1518e-25
6.2315e-07 4.1331e-25
6.2356e-07 4.1143e-25
6.2398e-07 4.0958e-25
6.2439e-07 4.0781e-25
6.2481e-07 4.0638e-25
6.2523e-07 4.0484e-25
6.2565e-07 4.035e-25
6.2606e-07 4.0272e-25
6.2648e-07 4.0221e-25
6.269e-07 4.0192e-25
6.2732e-07 4.0286e-25
6.2774e-07 4.0652e-25
6.2816e-07 4.0702e-25
6.2857e-07 4.0159e-25
6.2899e-07 3.9666e-25
6.2941e-07 3.9304e-25
6.2983e-07 3.9e-25
6.3025e-07 3.8515e-25
6.3068e-07 3.8098e-25
6.311e-07 3.7868e-25
6.3152e-07 3.7849e-25
6.3194e-07 3.7798e-25
6.3236e-07 3.7522e-25
6.3278e-07 3.711e-25
6.3321e-07 3.673e-25
6.3363e-07 3.6414e-25
6.3405e-07 3.6124e-25
6.3447e-07 3.5889e-25
6.349e-07 3.5647e-25
6.3532e-07 3.5338e-25
6.3575e-07 3.5044e-25
6.3617e-07 3.4789e-25
6.3659e-07 3.448e-25
6.3702e-07 3.4226e-25
6.3744e-07 3.4002e-25
6.3787e-07 3.3656e-25
6.383e-07 3.3391e-25
6.3872e-07 3.3165e-25
6.3915e-07 3.2882e-25
6.3957e-07 3.2615e-25
6.4e-07 3.2301e-25
6.4043e-07 3.203e-25
6.4086e-07 3.1831e-25
6.4128e-07 3.1533e-25
6.4171e-07 3.1246e-25
6.4214e-07 3.0974e-25
6.4257e-07 3.0772e-25
6.43e-07 3.057e-25
6.4343e-07 3.0387e-25
6.4386e-07 3.0231e-25
6.4429e-07 3.014e-25
6.4472e-07 3.0043e-25
6.4515e-07 2.9967e-25
6.4558e-07 2.9949e-25
6.4601e-07 3.0076e-25
6.4644e-07 3.0174e-25
6.4687e-07 3.0189e-25
6.473e-07 3.0291e-25
6.4773e-07 3.028e-25
6.4817e-07 3.0044e-25
6.486e-07 2.9729e-25
6.4903e-07 2.937e-25
6.4946e-07 2.893e-25
6.499e-07 2.8439e-25
6.5033e-07 2.7895e-25
6.5077e-07 2.7683e-25
6.512e-07 2.7914e-25
6.5164e-07 2.8253e-25
6.5207e-07 2.8091e-25
6.5251e-07 2.7338e-25
6.5294e-07 2.6788e-25
6.5338e-07 2.6646e-25
6.5381e-07 2.6471e-25
6.5425e-07 2.636e-25
6.5469e-07 2.6345e-25
6.5512e-07 2.6262e-25
6.5556e-07 2.6126e-25
6.56e-07 2.5823e-25
6.5644e-07 2.556e-25
6.5687e-07 2.5345e-25
6.5731e-07 2.5096e-25
6.5775e-07 2.4743e-25
6.5819e-07 2.4433e-25
6.5863e-07 2.4221e-25
6.5907e-07 2.3924e-25
6.5951e-07 2.3597e-25
6.5995e-07 2.3412e-25
6.6039e-07 2.3202e-25
6.6083e-07 2.2865e-25
6.6127e-07 2.2641e-25
6.6171e-07 2.2378e-25
6.6215e-07 2.2158e-25
6.626e-07 2.1999e-25
6.6304e-07 2.1825e-25
6.6348e-07 2.1648e-25
6.6392e-07 2.1433e-25
6.6437e-07 2.1267e-25
6.6481e-07 2.1043e-25
6.6525e-07 2.0812e-25
6.657e-07 2.0591e-25
6.6614e-07 2.0379e-25
6.6659e-07 2.0159e-25
6.6703e-07 1.9936e-25
6.6748e-07 1.9718e-25
6.6792e-07 1.9503e-25
6.6837e-07 1.9296e-25
6.6881e-07 1.9091e-25
6.6926e-07 1.8885e-25
6.6971e-07 1.8673e-25
6.7015e-07 1.8482e-25
6.706e-07 1.8288e-25
6.7105e-07 1.8096e-25
6.715e-07 1.7908e-25
6.7195e-07 1.7729e-25
6.7239e-07 1.7558e-25
6.7284e-07 1.7382e-25
6.7329e-07 1.7208e-25
6.7374e-07 1.7048e-25
6.7419e-07 1.6893e-25
6.7464e-07 1.6738e-25
6.7509e-07 1.658e-25
6.7554e-07 1.6428e-25
6.7599e-07 1.6282e-25
6.7644e-07 1.6139e-25
6.769e-07 1.5997e-25
6.7735e-07 1.5855e-25
6.778e-07 1.5715e-25
6.7825e-07 1.5589e-25
6.787e-07 1.5469e-25
6.7916e-07 1.5331e-25
6.7961e-07 1.5218e-25
6.8006e-07 1.5127e-25
6.8052e-07 1.5038e-25
6.8097e-07 1.494e-25
6.8143e-07 1.4851e-25
6.8188e-07 1.4795e-25
6.8234e-07 1.4748e-25
6.8279e-07 1.4686e-25
6.8325e-07 1.4578e-25
6.837e-07 1.452e-25
6.8416e-07 1.4474e-25
6.8462e-07 1.44e-25
6.8507e-07 1.4255e-25
6.8553e-07 1.4158e-25
6.8599e-07 1.4153e-25
6.8645e-07 1.4453e-25
6.869e-07 1.5223e-25
6.8736e-07 1.5813e-25
6.8782e-07 1.5384e-25
6.8828e-07 1.4733e-25
6.8874e-07 1.449e-25
6.892e-07 1.4479e-25
6.8966e-07 1.4341e-25
6.9012e-07 1.4074e-25
6.9058e-07 1.3782e-25
6.9104e-07 1.353e-25
6.915e-07 1.3319e-25
6.9196e-07 1.3221e-25
6.9243e-07 1.3251e-25
6.9289e-07 1.3346e-25
6.9335e-07 1.3405e-25
6.9381e-07 1.338e-25
6.9428e-07 1.329e-25
6.9474e-07 1.2993e-25
6.952e-07 1.2762e-25
6.9567e-07 1.2596e-25
6.9613e-07 1.23e-25
6.966e-07 1.1847e-25
6.9706e-07 1.1462e-25
6.9753e-07 1.1329e-25
6.9799e-07 1.1347e-25
6.9846e-07 1.1431e-25
6.9892e-07 1.1613e-25
6.9939e-07 1.1616e-25
6.9986e-07 1.1477e-25
7.0032e-07 1.1386e-25
7.0079e-07 1.136e-25
7.0126e-07 1.1214e-25
7.0173e-07 1.1154e-25
7.022e-07 1.1035e-25
7.0267e-07 1.0893e-25
7.0313e-07 1.0616e-25
7.036e-07 1.0322e-25
7.0407e-07 1.033e-25
7.0454e-07 1.0316e-25
7.0501e-07 1.0306e-25
7.0548e-07 1.0341e-25
7.0595e-07 1.0252e-25
7.0643e-07 1.0126e-25
7.069e-07 1.0007e-25
7.0737e-07 9.9483e-26
7.0784e-07 9.8704e-26
7.0831e-07 9.7521e-26
7.0879e-07 9.6001e-26
7.0926e-07 9.5698e-26
7.0973e-07 9.5687e-26
7.1021e-07 9.532e-26
7.1068e-07 9.4549e-26
7.1115e-07 9.3355e-26
7.1163e-07 9.215e-26
7.121e-07 9.1887e-26
7.1258e-07 9.1877e-26
7.1306e-07 9.2616e-26
7.1353e-07 9.2487e-26
7.1401e-07 9.2408e-26
7.1448e-07 9.3555e-26
7.1496e-07 9.4509e-26
7.1544e-07 9.5213e-26
7.1592e-07 9.589e-26
7.1639e-07 9.9936e-26
7.1687e-07 1.05e-25
7.1735e-07 1.0875e-25
7.1783e-07 1.0844e-25
7.1831e-07 1.0701e-25
7.1879e-07 1.0528e-25
7.1927e-07 1.047e-25
7.1975e-07 1.0529e-25
7.2023e-07 1.0221e-25
7.2071e-07 9.8846e-26
7.2119e-07 9.2169e-26
7.2167e-07 8.7686e-26
7.2215e-07 8.5366e-26
7.2263e-07 8.53e-26
7.2312e-07 8.7843e-26
7.236e-07 9.0777e-26
7.2408e-07 9.052e-26
7.2457e-07 8.9969e-26
7.2505e-07 9.0068e-26
7.2553e-07 8.8619e-26
7.2602e-07 8.8204e-26
7.265e-07 8.6763e-26
7.2699e-07 8.5184e-26
7.2747e-07 8.4538e-26
7.2796e-07 8.4464e-26
7.2844e-07 8.1566e-26
7.2893e-07 8.0167e-26
7.2942e-07 8.1215e-26
7.299e-07 8.1142e-26
7.3039e-07 8.0358e-26
7.3088e-07 7.9233e-26
7.3137e-07 7.813e-26
7.3185e-07 7.6165e-26
7.3234e-07 7.2258e-26
7.3283e-07 7.0329e-26
7.3332e-07 7.0033e-26
7.3381e-07 6.7857e-26
7.343e-07 6.681e-26
7.3479e-07 6.7286e-26
7.3528e-07 6.7737e-26
7.3577e-07 6.7812e-26
7.3626e-07 6.8072e-26
7.3675e-07 6.7847e-26
7.3724e-07 6.6546e-26
7.3774e-07 6.5013e-26
7.3823e-07 6.4839e-26
7.3872e-07 6.4506e-26
7.3921e-07 6.3916e-26
7.3971e-07 6.3497e-26
7.402e-07 6.2386e-26
7.407e-07 6.1764e-26
7.4119e-07 6.1546e-26
7.4169e-07 6.0898e-26
7.4218e-07 6.1002e-26
7.4268e-07 6.078e-26
7.4317e-07 6.0313e-26
7.4367e-07 6.0179e-26
7.4416e-07 6.0432e-26
7.4466e-07 6.0346e-26
7.4516e-07 6.0404e-26
7.4565e-07 6.0657e-26
7.4615e-07 6.054e-26
7.4665e-07 6.0483e-26
7.4715e-07 6.0442e-26
7.4765e-07 6.0185e-26
7.4815e-07 5.9791e-26
7.4865e-07 5.9151e-26
7.4915e-07 5.8472e-26
7.4965e-07 5.7721e-26
7.5015e-07 5.6883e-26
7.5065e-07 5.5911e-26
7.5115e-07 5.4681e-26
7.5165e-07 5.3457e-26
7.5215e-07 5.224e-26
7.5265e-07 5.104e-26
7.5315e-07 4.9916e-26
7.5366e-07 4.8985e-26
7.5416e-07 4.8121e-26
7.5466e-07 4.7281e-26
7.5517e-07 4.6555e-26
7.5567e-07 4.595e-26
7.5618e-07 4.5451e-26
7.5668e-07 4.5067e-26
7.5719e-07 4.4831e-26
7.5769e-07 4.4776e-26
7.582e-07 4.4999e-26
7.587e-07 4.5808e-26
7.5921e-07 4.7683e-26
7.5972e-07 5.149e-26
7.6022e-07 5.6741e-26
7.6073e-07 5.8973e-26
7.6124e-07 5.6746e-26
7.6175e-07 5.3935e-26
7.6225e-07 5.3138e-26
7.6276e-07 5.4081e-26
7.6327e-07 5.4669e-26
7.6378e-07 5.4141e-26
7.6429e-07 5.3091e-26
7.648e-07 5.1897e-26
7.6531e-07 5.0628e-26
7.6582e-07 4.9284e-26
7.6633e-07 4.7965e-26
7.6685e-07 4.6646e-26
7.6736e-07 4.5385e-26
7.6787e-07 4.4316e-26
7.6838e-07 4.3594e-26
7.689e-07 4.317e-26
7.6941e-07 4.2739e-26
7.6992e-07 4.2121e-26
7.7044e-07 4.1473e-26
7.7095e-07 4.1108e-26
7.7146e-07 4.1073e-26
7.7198e-07 4.1375e-26
7.7249e-07 4.165e-26
7.7301e-07 4.1917e-26
7.7353e-07 4.2211e-26
7.7404e-07 4.2605e-26
7.7456e-07 4.2984e-26
7.7508e-07 4.3618e-26
7.7559e-07 4.4061e-26
7.7611e-07 4.4589e-26
7.7663e-07 4.5076e-26
7.7715e-07 4.5573e-26
7.7767e-07 4.6048e-26
7.7819e-07 4.6388e-26
7.787e-07 4.6605e-26
7.7922e-07 4.6724e-26
7.7974e-07 4.6614e-26
7.8026e-07 4.6258e-26
7.8079e-07 4.5846e-26
7.8131e-07 4.532e-26
7.8183e-07 4.4794e-26
7.8235e-07 4.4192e-26
7.8287e-07 4.3439e-26
7.8339e-07 4.282e-26
7.8392e-07 4.2297e-26
7.8444e-07 4.1667e-26
7.8496e-07 4.1092e-26
7.8549e-07 4.0569e-26
7.8601e-07 4.048e-26
7.8654e-07 4.0687e-26
7.8706e-07 4.08e-26
7.8759e-07 4.0282e-26
7.8811e-07 3.974e-26
7.8864e-07 3.99e-26
7.8917e-07 4.0372e-26
7.8969e-07 4.0328e-26
7.9022e-07 3.9357e-26
7.9075e-07 3.8557e-26
7.9127e-07 3.7786e-26
7.918e-07 3.6954e-26
7.9233e-07 3.6575e-26
7.9286e-07 3.5528e-26
7.9339e-07 3.0853e-26
7.9392e-07 1.9771e-26
7.9445e-07 7.3288e-27
7.9498e-07 1.2644e-27
7.9551e-07 2.4755e-29
7.9604e-07 0
7.9657e-07 0
7.971e-07 0
7.9764e-07 0
7.9817e-07 0
7.987e-07 0
7.9923e-07 0
7.9977e-07 0
8.003e-07 0
8.0083e-07 0
8.0137e-07 0
8.019e-07 0
8.0244e-07 0
8.0297e-07 0
8.0351e-07 0
8.0405e-07 0
8.0458e-07 0
8.0512e-07 0
8.0566e-07 0
8.062e-07 0
8.0673e-07 0
8.0727e-07 0
8.0781e-07 0
8.0835e-07 0
8.0889e-07 0
8.0943e-07 0
8.0997e-07 0
8.1051e-07 0
8.1105e-07 0
8.1159e-07 0
8.1213e-07 0
8.1268e-07 0
8.1322e-07 0
8.1376e-07 0
8.1431e-07 0
8.1485e-07 0
8.1539e-07 0
8.1594e-07 0
8.1648e-07 0
8.1703e-07 0
8.1757e-07 0
8.1812e-07 0
8.1866e-07 0
8.1921e-07 0
8.1976e-07 0
8.203e-07 0
8.2085e-07 0
8.214e-07 0
8.2195e-07 0
8.225e-07 0
8.2304e-07 0
8.2359e-07 0
8.2414e-07 0
8.2469e-07 0
8.2524e-07 0
8.258e-07 0
8.2635e-07 0
8.269e-07 0
8.2745e-07 0
8.28e-07 0
8.2855e-07 0
8.2911e-07 0
8.2966e-07 0
8.3021e-07 0
8.3077e-07 0
8.3132e-07 0
8.3188e-07 0
8.3243e-07 0
8.3299e-07 0
8.3354e-07 0
8.341e-07 0
8.3466e-07 0
8.3522e-07 0
8.3577e-07 0
8.3633e-07 0
8.3689e-07 0
8.3745e-07 0
8.3801e-07 0
8.3857e-07 0
8.3913e-07 0
8.3969e-07 0
8.4025e-07 0
8.4081e-07 0
8.4137e-07 0
8.4193e-07 0
8.4249e-07 0
8.4305e-07 0
8.4362e-07 0
8.4418e-07 0
8.4474e-07 0
8.4531e-07 0
8.4587e-07 0
8.4644e-07 0
8.47e-07 0
8.4757e-07 0
8.4813e-07 0
8.487e-07 0
8.4926e-07 0
8.4983e-07 0
8.504e-07 0
8.5097e-07 0
8.5153e-07 0
8.521e-07 0
8.5267e-07 0
8.5324e-07 0
8.5381e-07 0
8.5438e-07 0
8.5495e-07 0
8.5552e-07 0
8.5609e-07 0
8.5666e-07 0
8.5723e-07 0
8.5781e-07 0
8.5838e-07 0
8.5895e-07 0
8.5952e-07 0
8.601e-07 0
8.6067e-07 0
8.6125e-07 0
8.6182e-07 0
8.624e-07 0
8.6297e-07 0
8.6355e-07 0
8.6412e-07 0
8.647e-07 0
8.6528e-07 0
8.6586e-07 0
8.6643e-07 0
8.6701e-07 0
8.6759e-07 0
8.6817e-07 0
8.6875e-07 0
8.6933e-07 0
8.6991e-07 0
8.7049e-07 0
8.7107e-07 0
8.7165e-07 0
8.7223e-07 0
8.7282e-07 0
8.734e-07 0
8.7398e-07 0
8.7457e-07 0
8.7515e-07 0
8.7573e-07 0
8.7632e-07 0
8.769e-07 0
8.7749e-07 0
8.7807e-07 0
8.7866e-07 0
8.7925e-07 0
8.7983e-07 0
8.8042e-07 0
8.8101e-07 0
8.816e-07 0
8.8218e-07 0
8.8277e-07 0
8.8336e-07 0
8.8395e-07 0
8.8454e-07 0
8.8513e-07 0
8.8572e-07 0
8.8631e-07 0
8.8691e-07 0
8.875e-07 0
8.8809e-07 0
8.8868e-07 0
8.8928e-07 0
8.8987e-07 0
8.9046e-07 0
8.9106e-07 0
8.9165e-07 0
8.9225e-07 0
8.9284e-07 0
8.9344e-07 0
8.9404e-07 0
8.9463e-07 0
8.9523e-07 0
8.9583e-07 0
8.9642e-07 0
8.9702e-07 0
8.9762e-07 0
8.9822e-07 0
8.9882e-07 0
8.9942e-07 0
9.0002e-07 0
9.0062e-07 0
9.0122e-07 0
9.0182e-07 0
9.0243e-07 0
9.0303e-07 0
9.0363e-07 0
9.0423e-07 0
9.0484e-07 0
9.0544e-07 0
9.0605e-07 0
9.0665e-07 0
9.0726e-07 0
9.0786e-07 0
9.0847e-07 0
9.0907e-07 0
9.0968e-07 0
9.1029e-07 0
9.1089e-07 0
9.115e-07 0
9.1211e-07 0
9.1272e-07 0
9.1333e-07 0
9.1394e-07 0
9.1455e-07 0
9.1516e-07 0
9.1577e-07 0
9.1638e-07 0
9.1699e-07 0
9.176e-07 0
9.1822e-07 0
9.1883e-07 0
9.1944e-07 0
9.2006e-07 0
9.2067e-07 0
9.2129e-07 0
9.219e-07 0
9.2252e-07 0
9.2313e-07 0
9.2375e-07 0
9.2436e-07 0
9.2498e-07 0
9.256e-07 0
9.2622e-07 0
9.2683e-07 0
9.2745e-07 0
9.2807e-07 0
9.2869e-07 0
9.2931e-07 0
9.2993e-07 0
9.3055e-07 0
9.3117e-07 0
9.3179e-07 0
9.3242e-07 0
9.3304e-07 0
9.3366e-07 0
9.3429e-07 0
9.3491e-07 0
9.3553e-07 0
9.3616e-07 0
9.3678e-07 0
9.3741e-07 0
9.3803e-07 0
9.3866e-07 0
9.3929e-07 0
9.3991e-07 0
9.4054e-07 0
9.4117e-07 0
9.418e-07 0
9.4242e-07 0
9.4305e-07 0
9.4368e-07 0
9.4431e-07 0
9.4494e-07 0
9.4557e-07 0
9.462e-07 0
9.4684e-07 0
9.4747e-07 0
9.481e-07 0
9.4873e-07 0
9.4937e-07 0
9.5e-07 0
