2.8e-07 3.897e-22
2.8019e-07 3.7952e-22
2.8037e-07 3.7122e-22
2.8056e-07 3.6546e-22
2.8075e-07 3.6163e-22
2.8094e-07 3.5786e-22
2.8112e-07 3.5041e-22
2.8131e-07 3.4001e-22
2.815e-07 3.3029e-22
2.8169e-07 3.2289e-22
2.8187e-07 3.1791e-22
2.8206e-07 3.1455e-22
2.8225e-07 3.109e-22
2.8244e-07 3.0541e-22
2.8263e-07 2.9948e-22
2.8282e-07 2.9513e-22
2.8301e-07 2.9294e-22
2.8319e-07 2.9208e-22
2.8338e-07 2.8914e-22
2.8357e-07 2.8105e-22
2.8376e-07 2.7099e-22
2.8395e-07 2.6241e-22
2.8414e-07 2.5632e-22
2.8433e-07 2.5219e-22
2.8452e-07 2.4865e-22
2.8471e-07 2.4451e-22
2.849e-07 2.3914e-22
2.8509e-07 2.3272e-22
2.8528e-07 2.2673e-22
2.8547e-07 2.2243e-22
2.8566e-07 2.1985e-22
2.8585e-07 2.1762e-22
2.8604e-07 2.1434e-22
2.8623e-07 2.0991e-22
2.8642e-07 2.0505e-22
2.8662e-07 2.005e-22
2.8681e-07 1.9673e-22
2.87e-07 1.9367e-22
2.8719e-07 1.9017e-22
2.8738e-07 1.8504e-22
2.8757e-07 1.7873e-22
2.8777e-07 1.7268e-22
2.8796e-07 1.6772e-22
2.8815e-07 1.6385e-22
2.8834e-07 1.6077e-22
2.8853e-07 1.5799e-22
2.8873e-07 1.5499e-22
2.8892e-07 1.5168e-22
2.8911e-07 1.4829e-22
2.8931e-07 1.4481e-22
2.895e-07 1.4125e-22
2.8969e-07 1.3797e-22
2.8989e-07 1.3522e-22
2.9008e-07 1.3274e-22
2.9027e-07 1.3028e-22
2.9047e-07 1.2789e-22
2.9066e-07 1.2539e-22
2.9085e-07 1.225e-22
2.9105e-07 1.192e-22
2.9124e-07 1.1559e-22
2.9144e-07 1.1179e-22
2.9163e-07 1.0814e-22
2.9183e-07 1.0506e-22
2.9202e-07 1.0255e-22
2.9222e-07 1.0046e-22
2.9241e-07 9.8854e-23
2.9261e-07 9.7445e-23
2.928e-07 9.5585e-23
2.93e-07 9.3025e-23
2.9319e-07 9.0093e-23
2.9339e-07 8.7117e-23
2.9358e-07 8.4306e-23
2.9378e-07 8.1957e-23
2.9398e-07 8.024e-23
2.9417e-07 7.8893e-23
2.9437e-07 7.7464e-23
2.9456e-07 7.5821e-23
2.9476e-07 7.3975e-23
2.9496e-07 7.1888e-23
2.9515e-07 6.9534e-23
2.9535e-07 6.7114e-23
2.9555e-07 6.5011e-23
2.9575e-07 6.3318e-23
2.9594e-07 6.1658e-23
2.9614e-07 5.981e-23
2.9634e-07 5.8154e-23
2.9654e-07 5.7024e-23
2.9673e-07 5.6083e-23
2.9693e-07 5.4771e-23
2.9713e-07 5.3069e-23
2.9733e-07 5.1326e-23
2.9753e-07 4.966e-23
2.9773e-07 4.8091e-23
2.9792e-07 4.6698e-23
2.9812e-07 4.5511e-23
2.9832e-07 4.4487e-23
2.9852e-07 4.358e-23
2.9872e-07 4.2739e-23
2.9892e-07 4.175e-23
2.9912e-07 4.0431e-23
2.9932e-07 3.8914e-23
2.9952e-07 3.7481e-23
2.9972e-07 3.6353e-23
2.9992e-07 3.5547e-23
3.0012e-07 3.4847e-23
3.0032e-07 3.4097e-23
3.0052e-07 3.3294e-23
3.0072e-07 3.2351e-23
3.0092e-07 3.12e-23
3.0112e-07 2.9999e-23
3.0132e-07 2.8974e-23
3.0152e-07 2.8222e-23
3.0173e-07 2.7708e-23
3.0193e-07 2.7286e-23
3.0213e-07 2.676e-23
3.0233e-07 2.6049e-23
3.0253e-07 2.5174e-23
3.0273e-07 2.4204e-23
3.0294e-07 2.325e-23
3.0314e-07 2.2446e-23
3.0334e-07 2.1849e-23
3.0354e-07 2.1422e-23
3.0375e-07 2.1135e-23
3.0395e-07 2.0897e-23
3.0415e-07 2.0517e-23
3.0435e-07 1.9925e-23
3.0456e-07 1.9197e-23
3.0476e-07 1.8377e-23
3.0496e-07 1.7552e-23
3.0517e-07 1.6828e-23
3.0537e-07 1.6288e-23
3.0557e-07 1.5969e-23
3.0578e-07 1.5778e-23
3.0598e-07 1.56e-23
3.0619e-07 1.5415e-23
3.0639e-07 1.5134e-23
3.066e-07 1.4662e-23
3.068e-07 1.407e-23
3.0701e-07 1.3405e-23
3.0721e-07 1.2727e-23
3.0742e-07 1.2169e-23
3.0762e-07 1.1816e-23
3.0783e-07 1.1674e-23
3.0803e-07 1.1618e-23
3.0824e-07 1.1462e-23
3.0844e-07 1.1194e-23
3.0865e-07 1.097e-23
3.0885e-07 1.0776e-23
3.0906e-07 1.0473e-23
3.0927e-07 9.9899e-24
3.0947e-07 9.3743e-24
3.0968e-07 8.836e-24
3.0989e-07 8.5429e-24
3.1009e-07 8.4506e-24
3.103e-07 8.3931e-24
3.1051e-07 8.2266e-24
3.1071e-07 7.9979e-24
3.1092e-07 7.809e-24
3.1113e-07 7.7061e-24
3.1134e-07 7.6478e-24
3.1155e-07 7.4619e-24
3.1175e-07 7.089e-24
3.1196e-07 6.6795e-24
3.1217e-07 6.3486e-24
3.1238e-07 6.0785e-24
3.1259e-07 5.8398e-24
3.1279e-07 5.663e-24
3.13e-07 5.5805e-24
3.1321e-07 5.616e-24
3.1342e-07 5.7431e-24
3.1363e-07 5.7708e-24
3.1384e-07 5.5613e-24
3.1405e-07 5.1918e-24
3.1426e-07 4.7731e-24
3.1447e-07 4.3923e-24
3.1468e-07 4.1436e-24
3.1489e-07 4.0507e-24
3.151e-07 4.0717e-24
3.1531e-07 4.1964e-24
3.1552e-07 4.3159e-24
3.1573e-07 4.2277e-24
3.1594e-07 3.9376e-24
3.1615e-07 3.6249e-24
3.1636e-07 3.3701e-24
3.1657e-07 3.1755e-24
3.1679e-07 3.0936e-24
3.17e-07 3.1393e-24
3.1721e-07 3.2175e-24
3.1742e-07 3.2855e-24
3.1763e-07 3.3208e-24
3.1784e-07 3.2116e-24
3.1806e-07 2.96e-24
3.1827e-07 2.6551e-24
3.1848e-07 2.3688e-24
3.1869e-07 2.1543e-24
3.1891e-07 2.0247e-24
3.1912e-07 2.0257e-24
3.1933e-07 2.1988e-24
3.1955e-07 2.4096e-24
3.1976e-07 2.5164e-24
3.1997e-07 2.5407e-24
3.2019e-07 2.4254e-24
3.204e-07 2.148e-24
3.2061e-07 1.8407e-24
3.2083e-07 1.5729e-24
3.2104e-07 1.377e-24
3.2126e-07 1.2894e-24
3.2147e-07 1.2917e-24
3.2168e-07 1.3828e-24
3.219e-07 1.6114e-24
3.2211e-07 1.849e-24
3.2233e-07 1.9075e-24
3.2254e-07 1.8807e-24
3.2276e-07 1.8149e-24
3.2297e-07 1.5973e-24
3.2319e-07 1.2836e-24
3.2341e-07 1.008e-24
3.2362e-07 8.2169e-25
3.2384e-07 7.3645e-25
3.2405e-07 7.5871e-25
3.2427e-07 8.4441e-25
3.2449e-07 9.6464e-25
3.247e-07 1.164e-24
3.2492e-07 1.3478e-24
3.2514e-07 1.3379e-24
3.2535e-07 1.2186e-24
3.2557e-07 1.1115e-24
3.2579e-07 9.6887e-25
3.2601e-07 7.8234e-25
3.2622e-07 6.203e-25
3.2644e-07 5.1423e-25
3.2666e-07 4.626e-25
3.2688e-07 4.8083e-25
3.271e-07 5.6887e-25
3.2731e-07 6.5509e-25
3.2753e-07 7.2153e-25
3.2775e-07 8.5378e-25
3.2797e-07 9.8709e-25
3.2819e-07 9.5276e-25
3.2841e-07 7.7398e-25
3.2863e-07 5.7895e-25
3.2885e-07 4.2974e-25
3.2907e-07 3.2959e-25
3.2928e-07 2.7204e-25
3.295e-07 2.5077e-25
3.2972e-07 2.5487e-25
3.2994e-07 2.9034e-25
3.3016e-07 3.8293e-25
3.3039e-07 4.8881e-25
3.3061e-07 5.2983e-25
3.3083e-07 5.4875e-25
3.3105e-07 5.9641e-25
3.3127e-07 5.9432e-25
3.3149e-07 5.0118e-25
3.3171e-07 3.799e-25
3.3193e-07 2.8089e-25
3.3215e-07 2.1231e-25
3.3238e-07 1.7032e-25
3.326e-07 1.5456e-25
3.3282e-07 1.652e-25
3.3304e-07 1.8999e-25
3.3326e-07 2.2709e-25
3.3349e-07 3.0197e-25
3.3371e-07 3.9078e-25
3.3393e-07 4.0664e-25
3.3415e-07 3.4226e-25
3.3438e-07 2.6132e-25
3.346e-07 2.0074e-25
3.3482e-07 1.574e-25
3.3505e-07 1.2295e-25
3.3527e-07 9.7299e-26
3.3549e-07 8.234e-26
3.3572e-07 7.6288e-26
3.3594e-07 7.9311e-26
3.3617e-07 9.8926e-26
3.3639e-07 1.3295e-25
3.3662e-07 1.6023e-25
3.3684e-07 1.8337e-25
3.3706e-07 2.3013e-25
3.3729e-07 2.7527e-25
3.3752e-07 2.6643e-25
3.3774e-07 2.142e-25
3.3797e-07 1.5769e-25
3.3819e-07 1.1433e-25
3.3842e-07 8.4151e-26
3.3864e-07 6.4931e-26
3.3887e-07 5.4573e-26
3.391e-07 5.1396e-26
3.3932e-07 5.3884e-26
3.3955e-07 6.0592e-26
3.3977e-07 7.6688e-26
3.4e-07 1.0814e-25
3.4023e-07 1.3372e-25
3.4046e-07 1.2858e-25
3.4068e-07 1.0266e-25
3.4091e-07 7.5493e-26
3.4114e-07 5.4963e-26
3.4137e-07 4.0973e-26
3.4159e-07 3.215e-26
3.4182e-07 2.7166e-26
3.4205e-07 2.4254e-26
3.4228e-07 2.1804e-26
3.4251e-07 2.0243e-26
3.4273e-07 2.1807e-26
3.4296e-07 2.7834e-26
3.4319e-07 3.6141e-26
3.4342e-07 4.477e-26
3.4365e-07 6.0588e-26
3.4388e-07 8.7191e-26
3.4411e-07 1.0448e-25
3.4434e-07 9.657e-26
3.4457e-07 7.5196e-26
3.448e-07 5.4775e-26
3.4503e-07 3.9927e-26
3.4526e-07 3.0295e-26
3.4549e-07 2.454e-26
3.4572e-07 2.0803e-26
3.4595e-07 1.7557e-26
3.4618e-07 1.4782e-26
3.4641e-07 1.3222e-26
3.4664e-07 1.365e-26
3.4688e-07 1.8005e-26
3.4711e-07 2.647e-26
3.4734e-07 3.2352e-26
3.4757e-07 3.0242e-26
3.478e-07 2.3626e-26
3.4803e-07 1.7181e-26
3.4827e-07 1.2526e-26
3.485e-07 9.5859e-27
3.4873e-07 7.7486e-27
3.4896e-07 6.5372e-27
3.492e-07 6.0677e-27
3.4943e-07 6.3362e-27
3.4966e-07 6.5346e-27
3.499e-07 6.2991e-27
3.5013e-07 6.1191e-27
3.5036e-07 6.2701e-27
3.506e-07 6.8764e-27
3.5083e-07 8.9118e-27
3.5107e-07 1.4767e-26
3.513e-07 2.4168e-26
3.5154e-07 3.0125e-26
3.5177e-07 2.8057e-26
3.52e-07 2.1867e-26
3.5224e-07 1.6105e-26
3.5247e-07 1.2153e-26
3.5271e-07 9.422e-27
3.5295e-07 7.2216e-27
3.5318e-07 5.4578e-27
3.5342e-07 4.1515e-27
3.5365e-07 3.1496e-27
3.5389e-07 2.375e-27
3.5412e-07 1.9056e-27
3.5436e-07 1.8301e-27
3.546e-07 2.2436e-27
3.5483e-07 3.0508e-27
3.5507e-07 3.6289e-27
3.5531e-07 3.4309e-27
3.5555e-07 2.6868e-27
3.5578e-07 1.9131e-27
3.5602e-07 1.3697e-27
3.5626e-07 1.0959e-27
3.565e-07 1.157e-27
3.5673e-07 1.4203e-27
3.5697e-07 1.4942e-27
3.5721e-07 1.3102e-27
3.5745e-07 1.1036e-27
3.5769e-07 9.2638e-28
3.5793e-07 7.2197e-28
3.5816e-07 5.3927e-28
3.584e-07 4.4508e-28
3.5864e-07 5.1159e-28
3.5888e-07 9.6098e-28
3.5912e-07 2.1325e-27
3.5936e-07 3.8232e-27
3.596e-07 4.9116e-27
3.5984e-07 4.833e-27
3.6008e-07 4.1351e-27
3.6032e-07 3.2929e-27
3.6056e-07 2.4983e-27
3.608e-07 1.8703e-27
3.6104e-07 1.4128e-27
3.6128e-07 1.0499e-27
3.6153e-07 7.7746e-28
3.6177e-07 6.0649e-28
3.6201e-07 5.0795e-28
3.6225e-07 4.6951e-28
3.6249e-07 4.1952e-28
3.6273e-07 3.3471e-28
3.6298e-07 2.8617e-28
3.6322e-07 3.0183e-28
3.6346e-07 3.4764e-28
3.637e-07 3.4903e-28
3.6395e-07 2.7431e-28
3.6419e-07 2.1798e-28
3.6443e-07 2.6517e-28
3.6468e-07 3.7645e-28
3.6492e-07 4.2534e-28
3.6516e-07 3.8188e-28
3.6541e-07 3.2681e-28
3.6565e-07 2.7769e-28
3.6589e-07 2.1803e-28
3.6614e-07 1.7067e-28
3.6638e-07 1.3971e-28
3.6663e-07 1.1654e-28
3.6687e-07 9.6591e-29
3.6712e-07 7.8708e-29
3.6736e-07 6.5024e-29
3.6761e-07 5.9206e-29
3.6785e-07 6.4197e-29
3.681e-07 8.0976e-29
3.6834e-07 1.0468e-28
3.6859e-07 1.2211e-28
3.6884e-07 1.2355e-28
3.6908e-07 1.1148e-28
3.6933e-07 9.4686e-29
3.6957e-07 7.8381e-29
3.6982e-07 6.3301e-29
3.7007e-07 4.9784e-29
3.7031e-07 3.6259e-29
3.7056e-07 2.5606e-29
3.7081e-07 2.127e-29
3.7106e-07 2.0238e-29
3.713e-07 2.0429e-29
3.7155e-07 2.1012e-29
3.718e-07 2.1766e-29
3.7205e-07 2.277e-29
3.723e-07 2.4091e-29
3.7255e-07 2.5622e-29
3.7279e-07 2.7503e-29
3.7304e-07 3.1062e-29
3.7329e-07 4.2093e-29
3.7354e-07 6.749e-29
3.7379e-07 8.5953e-29
3.7404e-07 8.7108e-29
3.7429e-07 1.0264e-28
3.7454e-07 1.1281e-28
3.7479e-07 2.8483e-28
3.7504e-07 1.9846e-27
3.7529e-07 6.854e-27
3.7554e-07 9.8429e-27
3.7579e-07 7.1572e-27
3.7604e-07 4.7589e-27
3.7629e-07 3.842e-27
3.7654e-07 2.5957e-27
3.7679e-07 1.6928e-27
3.7705e-07 1.7246e-27
3.773e-07 1.4558e-27
3.7755e-07 8.5932e-28
3.778e-07 5.5124e-28
3.7805e-07 3.1971e-28
3.7831e-07 1.7306e-28
3.7856e-07 1.2607e-28
3.7881e-07 1.0074e-28
3.7906e-07 7.9562e-29
3.7932e-07 7.47e-29
3.7957e-07 7.8296e-29
3.7982e-07 8.2269e-29
3.8008e-07 8.5327e-29
3.8033e-07 8.7751e-29
3.8058e-07 9.033e-29
3.8084e-07 9.3557e-29
3.8109e-07 9.6823e-29
3.8135e-07 9.9115e-29
3.816e-07 1.005e-28
3.8186e-07 1.0157e-28
3.8211e-07 1.0286e-28
3.8237e-07 1.0418e-28
3.8262e-07 1.0466e-28
3.8288e-07 1.0427e-28
3.8313e-07 1.0395e-28
3.8339e-07 1.033e-28
3.8364e-07 1.0096e-28
3.839e-07 9.6889e-29
3.8416e-07 9.2787e-29
3.8441e-07 8.9232e-29
3.8467e-07 8.54e-29
3.8493e-07 8.2082e-29
3.8518e-07 7.9421e-29
3.8544e-07 7.7238e-29
3.857e-07 7.4864e-29
3.8595e-07 7.2608e-29
3.8621e-07 7.3554e-29
3.8647e-07 8.9909e-29
3.8673e-07 1.3025e-28
3.8699e-07 1.6684e-28
3.8724e-07 2.119e-28
3.875e-07 3.7891e-28
3.8776e-07 6.4136e-28
3.8802e-07 7.0986e-28
3.8828e-07 5.9592e-28
3.8854e-07 4.8469e-28
3.888e-07 5.7543e-28
3.8906e-07 1.0206e-27
3.8932e-07 1.3666e-27
3.8958e-07 1.2471e-27
3.8984e-07 1.1082e-27
3.901e-07 1.262e-27
3.9036e-07 1.3576e-27
3.9062e-07 1.1426e-27
3.9088e-07 9.3207e-28
3.9114e-07 8.9532e-28
3.914e-07 9.5138e-28
3.9166e-07 1.0877e-27
3.9192e-07 1.1893e-27
3.9218e-07 1.1172e-27
3.9245e-07 9.0993e-28
3.9271e-07 7.6835e-28
3.9297e-07 6.8823e-28
3.9323e-07 5.7667e-28
3.935e-07 5.3896e-28
3.9376e-07 5.9382e-28
3.9402e-07 6.3407e-28
3.9428e-07 6.633e-28
3.9455e-07 6.8685e-28
3.9481e-07 6.6908e-28
3.9507e-07 6.1037e-28
3.9534e-07 6.1579e-28
3.956e-07 5.9611e-28
3.9587e-07 5.2151e-28
3.9613e-07 4.9768e-28
3.9639e-07 4.8357e-28
3.9666e-07 4.9071e-28
3.9692e-07 5.1155e-28
3.9719e-07 5.0936e-28
3.9745e-07 5.1483e-28
3.9772e-07 4.8576e-28
3.9798e-07 3.9785e-28
3.9825e-07 3.245e-28
3.9852e-07 3.263e-28
3.9878e-07 3.9489e-28
3.9905e-07 4.6838e-28
3.9931e-07 4.7827e-28
3.9958e-07 4.4322e-28
3.9985e-07 4.0859e-28
4.0011e-07 4.0185e-28
4.0038e-07 4.3553e-28
4.0065e-07 4.7235e-28
4.0092e-07 4.8716e-28
4.0118e-07 4.9472e-28
4.0145e-07 5.1617e-28
4.0172e-07 5.5097e-28
4.0199e-07 5.8523e-28
4.0226e-07 6.0941e-28
4.0252e-07 6.1875e-28
4.0279e-07 6.1552e-28
4.0306e-07 6.0201e-28
4.0333e-07 5.8277e-28
4.036e-07 5.6924e-28
4.0387e-07 5.6911e-28
4.0414e-07 5.7492e-28
4.0441e-07 5.7495e-28
4.0468e-07 5.7021e-28
4.0495e-07 5.6914e-28
4.0522e-07 5.7823e-28
4.0549e-07 6.0147e-28
4.0576e-07 6.3742e-28
4.0603e-07 6.8031e-28
4.063e-07 7.2991e-28
4.0657e-07 7.9632e-28
4.0684e-07 8.8704e-28
4.0712e-07 9.9407e-28
4.0739e-07 1.102e-27
4.0766e-07 1.2033e-27
4.0793e-07 1.2969e-27
4.082e-07 1.3792e-27
4.0848e-07 1.447e-27
4.0875e-07 1.5048e-27
4.0902e-07 1.5636e-27
4.0929e-07 1.6204e-27
4.0957e-07 1.6625e-27
4.0984e-07 1.6832e-27
4.1011e-07 1.6897e-27
4.1039e-07 1.694e-27
4.1066e-07 1.6981e-27
4.1094e-07 1.6985e-27
4.1121e-07 1.6928e-27
4.1149e-07 1.6804e-27
4.1176e-07 1.6584e-27
4.1203e-07 1.6205e-27
4.1231e-07 1.564e-27
4.1258e-07 1.4972e-27
4.1286e-07 1.4334e-27
4.1314e-07 1.3872e-27
4.1341e-07 1.371e-27
4.1369e-07 1.3917e-27
4.1396e-07 1.4487e-27
4.1424e-07 1.5263e-27
4.1452e-07 1.6148e-27
4.1479e-07 1.7164e-27
4.1507e-07 1.8334e-27
4.1535e-07 1.9609e-27
4.1562e-07 2.0849e-27
4.159e-07 2.2022e-27
4.1618e-07 2.3068e-27
4.1646e-07 2.402e-27
4.1673e-07 2.4927e-27
4.1701e-07 2.573e-27
4.1729e-07 2.6409e-27
4.1757e-07 2.6949e-27
4.1785e-07 2.7266e-27
4.1813e-07 2.7255e-27
4.1841e-07 2.6936e-27
4.1869e-07 2.6447e-27
4.1897e-07 2.6071e-27
4.1924e-07 2.5903e-27
4.1952e-07 2.593e-27
4.198e-07 2.6179e-27
4.2008e-07 2.6586e-27
4.2037e-07 2.7105e-27
4.2065e-07 2.7844e-27
4.2093e-07 2.9039e-27
4.2121e-07 3.0717e-27
4.2149e-07 3.2682e-27
4.2177e-07 3.4744e-27
4.2205e-07 3.6863e-27
4.2233e-07 3.918e-27
4.2262e-07 4.1803e-27
4.229e-07 4.4559e-27
4.2318e-07 4.7188e-27
4.2346e-07 4.9646e-27
4.2374e-07 5.2108e-27
4.2403e-07 5.4661e-27
4.2431e-07 5.7163e-27
4.2459e-07 5.9435e-27
4.2488e-07 6.1396e-27
4.2516e-07 6.3053e-27
4.2544e-07 6.4181e-27
4.2573e-07 6.4608e-27
4.2601e-07 6.4383e-27
4.263e-07 6.3879e-27
4.2658e-07 6.3298e-27
4.2687e-07 6.2613e-27
4.2715e-07 6.1602e-27
4.2744e-07 6.0218e-27
4.2772e-07 5.8733e-27
4.2801e-07 5.7317e-27
4.2829e-07 5.6063e-27
4.2858e-07 5.5045e-27
4.2886e-07 5.4342e-27
4.2915e-07 5.3885e-27
4.2944e-07 5.3738e-27
4.2972e-07 5.41e-27
4.3001e-07 5.501e-27
4.303e-07 5.6451e-27
4.3058e-07 5.8386e-27
4.3087e-07 6.0811e-27
4.3116e-07 6.3653e-27
4.3145e-07 6.6711e-27
4.3174e-07 6.9733e-27
4.3202e-07 7.2561e-27
4.3231e-07 7.5133e-27
4.326e-07 7.7315e-27
4.3289e-07 7.9003e-27
4.3318e-07 8.0296e-27
4.3347e-07 8.1253e-27
4.3376e-07 8.1696e-27
4.3405e-07 8.1452e-27
4.3434e-07 8.0752e-27
4.3463e-07 8.0093e-27
4.3492e-07 7.977e-27
4.3521e-07 7.9674e-27
4.355e-07 7.9638e-27
4.3579e-07 7.9735e-27
4.3608e-07 8.0243e-27
4.3637e-07 8.1375e-27
4.3666e-07 8.3114e-27
4.3695e-07 8.5344e-27
4.3724e-07 8.8132e-27
4.3754e-07 9.1591e-27
4.3783e-07 9.5685e-27
4.3812e-07 1.0041e-26
4.3841e-07 1.0598e-26
4.387e-07 1.1223e-26
4.39e-07 1.1849e-26
4.3929e-07 1.2444e-26
4.3958e-07 1.3008e-26
4.3988e-07 1.3602e-26
4.4017e-07 1.4207e-26
4.4046e-07 1.4784e-26
4.4076e-07 1.5368e-26
4.4105e-07 1.5945e-26
4.4135e-07 1.6524e-26
4.4164e-07 1.7026e-26
4.4194e-07 1.7461e-26
4.4223e-07 1.7926e-26
4.4253e-07 1.8443e-26
4.4282e-07 1.8785e-26
4.4312e-07 1.8701e-26
4.4341e-07 1.8417e-26
4.4371e-07 1.8186e-26
4.44e-07 1.7935e-26
4.443e-07 1.7713e-26
4.446e-07 1.7418e-26
4.4489e-07 1.704e-26
4.4519e-07 1.6579e-26
4.4549e-07 1.6112e-26
4.4579e-07 1.5677e-26
4.4608e-07 1.5235e-26
4.4638e-07 1.4943e-26
4.4668e-07 1.4743e-26
4.4698e-07 1.4701e-26
4.4728e-07 1.4814e-26
4.4757e-07 1.5054e-26
4.4787e-07 1.5418e-26
4.4817e-07 1.586e-26
4.4847e-07 1.6352e-26
4.4877e-07 1.6912e-26
4.4907e-07 1.7501e-26
4.4937e-07 1.8065e-26
4.4967e-07 1.86e-26
4.4997e-07 1.9108e-26
4.5027e-07 1.9568e-26
4.5057e-07 1.9922e-26
4.5087e-07 2.0131e-26
4.5117e-07 2.0196e-26
4.5147e-07 2.0162e-26
4.5177e-07 2.0113e-26
4.5208e-07 2.009e-26
4.5238e-07 2.0097e-26
4.5268e-07 2.0111e-26
4.5298e-07 2.0075e-26
4.5328e-07 1.9937e-26
4.5359e-07 1.9758e-26
4.5389e-07 1.9762e-26
4.5419e-07 2.0123e-26
4.545e-07 2.0806e-26
4.548e-07 2.1647e-26
4.551e-07 2.2425e-26
4.5541e-07 2.2916e-26
4.5571e-07 2.3138e-26
4.5601e-07 2.3433e-26
4.5632e-07 2.4049e-26
4.5662e-07 2.4967e-26
4.5693e-07 2.6075e-26
4.5723e-07 2.7289e-26
4.5754e-07 2.8562e-26
4.5784e-07 2.9849e-26
4.5815e-07 3.1127e-26
4.5846e-07 3.2385e-26
4.5876e-07 3.3603e-26
4.5907e-07 3.4826e-26
4.5937e-07 3.6068e-26
4.5968e-07 3.7286e-26
4.5999e-07 3.8447e-26
4.6029e-07 3.9525e-26
4.606e-07 4.0422e-26
4.6091e-07 4.1119e-26
4.6122e-07 4.1615e-26
4.6152e-07 4.1884e-26
4.6183e-07 4.1941e-26
4.6214e-07 4.1808e-26
4.6245e-07 4.1525e-26
4.6276e-07 4.1109e-26
4.6307e-07 4.0499e-26
4.6338e-07 3.9685e-26
4.6368e-07 3.8741e-26
4.6399e-07 3.7756e-26
4.643e-07 3.6808e-26
4.6461e-07 3.5943e-26
4.6492e-07 3.5161e-26
4.6523e-07 3.4486e-26
4.6554e-07 3.3996e-26
4.6586e-07 3.3772e-26
4.6617e-07 3.3824e-26
4.6648e-07 3.4154e-26
4.6679e-07 3.4739e-26
4.671e-07 3.5465e-26
4.6741e-07 3.6274e-26
4.6772e-07 3.7123e-26
4.6804e-07 3.8044e-26
4.6835e-07 3.9057e-26
4.6866e-07 4.0125e-26
4.6897e-07 4.1134e-26
4.6929e-07 4.2036e-26
4.696e-07 4.2908e-26
4.6991e-07 4.3411e-26
4.7023e-07 4.3586e-26
4.7054e-07 4.3681e-26
4.7086e-07 4.3786e-26
4.7117e-07 4.3791e-26
4.7148e-07 4.3621e-26
4.718e-07 4.3456e-26
4.7211e-07 4.3432e-26
4.7243e-07 4.3428e-26
4.7274e-07 4.3485e-26
4.7306e-07 4.3676e-26
4.7338e-07 4.3905e-26
4.7369e-07 4.4256e-26
4.7401e-07 4.4792e-26
4.7432e-07 4.5443e-26
4.7464e-07 4.6303e-26
4.7496e-07 4.7304e-26
4.7527e-07 4.8511e-26
4.7559e-07 4.9915e-26
4.7591e-07 5.1498e-26
4.7623e-07 5.3216e-26
4.7654e-07 5.5045e-26
4.7686e-07 5.6998e-26
4.7718e-07 5.9042e-26
4.775e-07 6.1158e-26
4.7782e-07 6.336e-26
4.7814e-07 6.559e-26
4.7846e-07 6.7864e-26
4.7878e-07 7.02e-26
4.7909e-07 7.2572e-26
4.7941e-07 7.4942e-26
4.7973e-07 7.7222e-26
4.8005e-07 7.9375e-26
4.8038e-07 8.1412e-26
4.807e-07 8.3308e-26
4.8102e-07 8.501e-26
4.8134e-07 8.6418e-26
4.8166e-07 8.743e-26
4.8198e-07 8.8072e-26
4.823e-07 8.8368e-26
4.8262e-07 8.8334e-26
4.8295e-07 8.8028e-26
4.8327e-07 8.749e-26
4.8359e-07 8.6729e-26
4.8391e-07 8.5805e-26
4.8424e-07 8.4848e-26
4.8456e-07 8.3982e-26
4.8488e-07 8.3087e-26
4.8521e-07 8.1867e-26
4.8553e-07 8.0498e-26
4.8585e-07 7.9106e-26
4.8618e-07 7.7954e-26
4.865e-07 7.7143e-26
4.8683e-07 7.6791e-26
4.8715e-07 7.6669e-26
4.8748e-07 7.6786e-26
4.878e-07 7.71e-26
4.8813e-07 7.7691e-26
4.8846e-07 7.8522e-26
4.8878e-07 7.9571e-26
4.8911e-07 8.0762e-26
4.8943e-07 8.1828e-26
4.8976e-07 8.2784e-26
4.9009e-07 8.3809e-26
4.9041e-07 8.4836e-26
4.9074e-07 8.5764e-26
4.9107e-07 8.6551e-26
4.914e-07 8.7168e-26
4.9173e-07 8.7664e-26
4.9205e-07 8.8105e-26
4.9238e-07 8.841e-26
4.9271e-07 8.8676e-26
4.9304e-07 8.8856e-26
4.9337e-07 8.9006e-26
4.937e-07 8.9206e-26
4.9403e-07 8.9496e-26
4.9436e-07 8.9855e-26
4.9469e-07 9.0281e-26
4.9502e-07 9.0807e-26
4.9535e-07 9.1537e-26
4.9568e-07 9.2509e-26
4.9601e-07 9.3702e-26
4.9634e-07 9.5114e-26
4.9667e-07 9.6734e-26
4.97e-07 9.8565e-26
4.9733e-07 1.006e-25
4.9767e-07 1.0289e-25
4.98e-07 1.0548e-25
4.9833e-07 1.083e-25
4.9866e-07 1.1129e-25
4.99e-07 1.1443e-25
4.9933e-07 1.1775e-25
4.9966e-07 1.2115e-25
5e-07 1.2478e-25
5.0033e-07 1.2853e-25
5.0066e-07 1.3236e-25
5.01e-07 1.3627e-25
5.0133e-07 1.4064e-25
5.0167e-07 1.4539e-25
5.02e-07 1.4924e-25
5.0234e-07 1.5255e-25
5.0267e-07 1.565e-25
5.0301e-07 1.6072e-25
5.0334e-07 1.6575e-25
5.0368e-07 1.7095e-25
5.0402e-07 1.7413e-25
5.0435e-07 1.7502e-25
5.0469e-07 1.744e-25
5.0503e-07 1.7375e-25
5.0536e-07 1.7425e-25
5.057e-07 1.7568e-25
5.0604e-07 1.7604e-25
5.0637e-07 1.7499e-25
5.0671e-07 1.7503e-25
5.0705e-07 1.7488e-25
5.0739e-07 1.7404e-25
5.0773e-07 1.7257e-25
5.0807e-07 1.7067e-25
5.0841e-07 1.6891e-25
5.0875e-07 1.6717e-25
5.0909e-07 1.6557e-25
5.0942e-07 1.6448e-25
5.0976e-07 1.6335e-25
5.1011e-07 1.6188e-25
5.1045e-07 1.6094e-25
5.1079e-07 1.5988e-25
5.1113e-07 1.5985e-25
5.1147e-07 1.5961e-25
5.1181e-07 1.5986e-25
5.1215e-07 1.6059e-25
5.1249e-07 1.612e-25
5.1284e-07 1.6201e-25
5.1318e-07 1.6287e-25
5.1352e-07 1.6392e-25
5.1386e-07 1.6505e-25
5.1421e-07 1.6631e-25
5.1455e-07 1.6761e-25
5.1489e-07 1.6895e-25
5.1524e-07 1.7023e-25
5.1558e-07 1.7144e-25
5.1592e-07 1.7256e-25
5.1627e-07 1.7366e-25
5.1661e-07 1.7472e-25
5.1696e-07 1.7575e-25
5.173e-07 1.7675e-25
5.1765e-07 1.7779e-25
5.1799e-07 1.7888e-25
5.1834e-07 1.8001e-25
5.1869e-07 1.8114e-25
5.1903e-07 1.8231e-25
5.1938e-07 1.8356e-25
5.1972e-07 1.8488e-25
5.2007e-07 1.8632e-25
5.2042e-07 1.8787e-25
5.2077e-07 1.8959e-25
5.2111e-07 1.9147e-25
5.2146e-07 1.9353e-25
5.2181e-07 1.9582e-25
5.2216e-07 1.983e-25
5.2251e-07 2.0098e-25
5.2285e-07 2.0389e-25
5.232e-07 2.0717e-25
5.2355e-07 2.108e-25
5.239e-07 2.1458e-25
5.2425e-07 2.1861e-25
5.246e-07 2.2213e-25
5.2495e-07 2.2542e-25
5.253e-07 2.285e-25
5.2565e-07 2.315e-25
5.26e-07 2.3485e-25
5.2635e-07 2.3874e-25
5.2671e-07 2.4305e-25
5.2706e-07 2.4708e-25
5.2741e-07 2.5049e-25
5.2776e-07 2.5385e-25
5.2811e-07 2.5723e-25
5.2847e-07 2.6082e-25
5.2882e-07 2.6441e-25
5.2917e-07 2.6775e-25
5.2953e-07 2.7094e-25
5.2988e-07 2.7408e-25
5.3023e-07 2.7706e-25
5.3059e-07 2.7971e-25
5.3094e-07 2.8196e-25
5.3129e-07 2.8396e-25
5.3165e-07 2.8591e-25
5.32e-07 2.8763e-25
5.3236e-07 2.8916e-25
5.3271e-07 2.9036e-25
5.3307e-07 2.9117e-25
5.3343e-07 2.9175e-25
5.3378e-07 2.9222e-25
5.3414e-07 2.9248e-25
5.3449e-07 2.9256e-25
5.3485e-07 2.9256e-25
5.3521e-07 2.9242e-25
5.3557e-07 2.9217e-25
5.3592e-07 2.9192e-25
5.3628e-07 2.919e-25
5.3664e-07 2.9175e-25
5.37e-07 2.9183e-25
5.3736e-07 2.92e-25
5.3771e-07 2.9269e-25
5.3807e-07 2.936e-25
5.3843e-07 2.9462e-25
5.3879e-07 2.9607e-25
5.3915e-07 2.9783e-25
5.3951e-07 2.9994e-25
5.3987e-07 3.0273e-25
5.4023e-07 3.058e-25
5.4059e-07 3.0947e-25
5.4095e-07 3.1358e-25
5.4131e-07 3.1683e-25
5.4167e-07 3.1901e-25
5.4204e-07 3.2048e-25
5.424e-07 3.2154e-25
5.4276e-07 3.2297e-25
5.4312e-07 3.2493e-25
5.4349e-07 3.287e-25
5.4385e-07 3.311e-25
5.4421e-07 3.3165e-25
5.4457e-07 3.3339e-25
5.4494e-07 3.3511e-25
5.453e-07 3.3647e-25
5.4567e-07 3.3906e-25
5.4603e-07 3.4197e-25
5.4639e-07 3.4341e-25
5.4676e-07 3.4362e-25
5.4712e-07 3.4265e-25
5.4749e-07 3.427e-25
5.4785e-07 3.4345e-25
5.4822e-07 3.4395e-25
5.4859e-07 3.4441e-25
5.4895e-07 3.4536e-25
5.4932e-07 3.4653e-25
5.4968e-07 3.4776e-25
5.5005e-07 3.4832e-25
5.5042e-07 3.4874e-25
5.5079e-07 3.4944e-25
5.5115e-07 3.5038e-25
5.5152e-07 3.5124e-25
5.5189e-07 3.5203e-25
5.5226e-07 3.5308e-25
5.5263e-07 3.5437e-25
5.53e-07 3.5559e-25
5.5336e-07 3.5698e-25
5.5373e-07 3.5838e-25
5.541e-07 3.5993e-25
5.5447e-07 3.6172e-25
5.5484e-07 3.6363e-25
5.5521e-07 3.656e-25
5.5558e-07 3.6775e-25
5.5596e-07 3.7005e-25
5.5633e-07 3.7256e-25
5.567e-07 3.7529e-25
5.5707e-07 3.7826e-25
5.5744e-07 3.8145e-25
5.5781e-07 3.8481e-25
5.5819e-07 3.8826e-25
5.5856e-07 3.9188e-25
5.5893e-07 3.9563e-25
5.593e-07 3.995e-25
5.5968e-07 4.034e-25
5.6005e-07 4.0754e-25
5.6042e-07 4.1154e-25
5.608e-07 4.1558e-25
5.6117e-07 4.1946e-25
5.6155e-07 4.2317e-25
5.6192e-07 4.2702e-25
5.623e-07 4.3071e-25
5.6267e-07 4.3425e-25
5.6305e-07 4.3743e-25
5.6342e-07 4.4033e-25
5.638e-07 4.4335e-25
5.6418e-07 4.4643e-25
5.6455e-07 4.4918e-25
5.6493e-07 4.5185e-25
5.6531e-07 4.5432e-25
5.6568e-07 4.5677e-25
5.6606e-07 4.595e-25
5.6644e-07 4.6245e-25
5.6682e-07 4.6543e-25
5.672e-07 4.6848e-25
5.6757e-07 4.7259e-25
5.6795e-07 4.7777e-25
5.6833e-07 4.8443e-25
5.6871e-07 4.9013e-25
5.6909e-07 4.9351e-25
5.6947e-07 4.95e-25
5.6985e-07 4.964e-25
5.7023e-07 4.9606e-25
5.7061e-07 4.942e-25
5.7099e-07 4.944e-25
5.7137e-07 4.9705e-25
5.7176e-07 5.0162e-25
5.7214e-07 5.0617e-25
5.7252e-07 5.0703e-25
5.729e-07 5.0765e-25
5.7328e-07 5.0779e-25
5.7367e-07 5.0815e-25
5.7405e-07 5.0973e-25
5.7443e-07 5.1033e-25
5.7482e-07 5.0991e-25
5.752e-07 5.0818e-25
5.7558e-07 5.0741e-25
5.7597e-07 5.0637e-25
5.7635e-07 5.0399e-25
5.7674e-07 5.0192e-25
5.7712e-07 5.0136e-25
5.7751e-07 4.9969e-25
5.7789e-07 4.9656e-25
5.7828e-07 4.9349e-25
5.7866e-07 4.9129e-25
5.7905e-07 4.8974e-25
5.7944e-07 4.8754e-25
5.7982e-07 4.8451e-25
5.8021e-07 4.8203e-25
5.806e-07 4.8029e-25
5.8098e-07 4.785e-25
5.8137e-07 4.7658e-25
5.8176e-07 4.7518e-25
5.8215e-07 4.7338e-25
5.8254e-07 4.7171e-25
5.8293e-07 4.7047e-25
5.8331e-07 4.6972e-25
5.837e-07 4.6881e-25
5.8409e-07 4.6796e-25
5.8448e-07 4.6715e-25
5.8487e-07 4.6637e-25
5.8526e-07 4.6559e-25
5.8565e-07 4.6584e-25
5.8605e-07 4.6749e-25
5.8644e-07 4.6943e-25
5.8683e-07 4.7147e-25
5.8722e-07 4.7481e-25
5.8761e-07 4.7954e-25
5.88e-07 4.8647e-25
5.884e-07 4.9471e-25
5.8879e-07 5.0088e-25
5.8918e-07 5.0389e-25
5.8958e-07 5.0469e-25
5.8997e-07 5.0572e-25
5.9036e-07 5.0377e-25
5.9076e-07 5.0223e-25
5.9115e-07 5.0424e-25
5.9155e-07 5.0716e-25
5.9194e-07 5.1177e-25
5.9234e-07 5.1354e-25
5.9273e-07 5.1031e-25
5.9313e-07 5.0805e-25
5.9352e-07 5.0954e-25
5.9392e-07 5.1778e-25
5.9431e-07 5.2918e-25
5.9471e-07 5.3702e-25
5.9511e-07 5.3663e-25
5.9551e-07 5.3358e-25
5.959e-07 5.3483e-25
5.963e-07 5.3594e-25
5.967e-07 5.4129e-25
5.971e-07 5.4693e-25
5.975e-07 5.4849e-25
5.9789e-07 5.5116e-25
5.9829e-07 5.5136e-25
5.9869e-07 5.525e-25
5.9909e-07 5.551e-25
5.9949e-07 5.5495e-25
5.9989e-07 5.5488e-25
6.0029e-07 5.5503e-25
6.0069e-07 5.5408e-25
6.0109e-07 5.5325e-25
6.015e-07 5.5313e-25
6.019e-07 5.5256e-25
6.023e-07 5.5043e-25
6.027e-07 5.4891e-25
6.031e-07 5.4819e-25
6.0351e-07 5.4566e-25
6.0391e-07 5.432e-25
6.0431e-07 5.4121e-25
6.0471e-07 5.3907e-25
6.0512e-07 5.3643e-25
6.0552e-07 5.3401e-25
6.0593e-07 5.3103e-25
6.0633e-07 5.2771e-25
6.0674e-07 5.2436e-25
6.0714e-07 5.2103e-25
6.0755e-07 5.1763e-25
6.0795e-07 5.1397e-25
6.0836e-07 5.1025e-25
6.0876e-07 5.0654e-25
6.0917e-07 5.0274e-25
6.0958e-07 4.9896e-25
6.0998e-07 4.9524e-25
6.1039e-07 4.9193e-25
6.108e-07 4.8936e-25
6.112e-07 4.8752e-25
6.1161e-07 4.8594e-25
6.1202e-07 4.8426e-25
6.1243e-07 4.824e-25
6.1284e-07 4.8027e-25
6.1325e-07 4.7799e-25
6.1366e-07 4.7574e-25
6.1407e-07 4.7349e-25
6.1448e-07 4.7117e-25
6.1489e-07 4.6882e-25
6.153e-07 4.6645e-25
6.1571e-07 4.6405e-25
6.1612e-07 4.6169e-25
6.1653e-07 4.5933e-25
6.1694e-07 4.5697e-25
6.1735e-07 4.5465e-25
6.1776e-07 4.5237e-25
6.1818e-07 4.5019e-25
6.1859e-07 4.4807e-25
6.19e-07 4.4595e-25
6.1942e-07 4.439e-25
6.1983e-07 4.4197e-25
6.2024e-07 4.4002e-25
6.2066e-07 4.3808e-25
6.2107e-07 4.3614e-25
6.2149e-07 4.3425e-25
6.219e-07 4.324e-25
6.2232e-07 4.3057e-25
6.2273e-07 4.2868e-25
6.2315e-07 4.2688e-25
6.2356e-07 4.2512e-25
6.2398e-07 4.2339e-25
6.2439e-07 4.2173e-25
6.2481e-07 4.205e-25
6.2523e-07 4.1917e-25
6.2565e-07 4.1813e-25
6.2606e-07 4.178e-25
6.2648e-07 4.1782e-25
6.269e-07 4.1801e-25
6.2732e-07 4.1939e-25
6.2774e-07 4.2402e-25
6.2816e-07 4.2476e-25
6.2857e-07 4.196e-25
6.2899e-07 4.1417e-25
6.2941e-07 4.1024e-25
6.2983e-07 4.07e-25
6.3025e-07 4.0163e-25
6.3068e-07 3.9713e-25
6.311e-07 3.9493e-25
6.3152e-07 3.9507e-25
6.3194e-07 3.9503e-25
6.3236e-07 3.9219e-25
6.3278e-07 3.8764e-25
6.3321e-07 3.8362e-25
6.3363e-07 3.8028e-25
6.3405e-07 3.7726e-25
6.3447e-07 3.7492e-25
6.349e-07 3.7241e-25
6.3532e-07 3.6922e-25
6.3575e-07 3.6619e-25
6.3617e-07 3.6371e-25
6.3659e-07 3.6049e-25
6.3702e-07 3.5798e-25
6.3744e-07 3.5579e-25
6.3787e-07 3.5207e-25
6.383e-07 3.4942e-25
6.3872e-07 3.4724e-25
6.3915e-07 3.4439e-25
6.3957e-07 3.4168e-25
6.4e-07 3.3851e-25
6.4043e-07 3.3584e-25
6.4086e-07 3.3391e-25
6.4128e-07 3.3081e-25
6.4171e-07 3.2786e-25
6.4214e-07 3.251e-25
6.4257e-07 3.2311e-25
6.43e-07 3.2121e-25
6.4343e-07 3.1955e-25
6.4386e-07 3.1815e-25
6.4429e-07 3.1746e-25
6.4472e-07 3.167e-25
6.4515e-07 3.1622e-25
6.4558e-07 3.1644e-25
6.4601e-07 3.1845e-25
6.4644e-07 3.2e-25
6.4687e-07 3.2062e-25
6.473e-07 3.2214e-25
6.4773e-07 3.2231e-25
6.4817e-07 3.1995e-25
6.486e-07 3.1664e-25
6.4903e-07 3.1279e-25
6.4946e-07 3.0794e-25
6.499e-07 3.0239e-25
6.5033e-07 2.962e-25
6.5077e-07 2.9409e-25
6.512e-07 2.97e-25
6.5164e-07 3.013e-25
6.5207e-07 2.9967e-25
6.5251e-07 2.9118e-25
6.5294e-07 2.8508e-25
6.5338e-07 2.8386e-25
6.5381e-07 2.8211e-25
6.5425e-07 2.8108e-25
6.5469e-07 2.8133e-25
6.5512e-07 2.8063e-25
6.5556e-07 2.7922e-25
6.56e-07 2.7598e-25
6.5644e-07 2.7316e-25
6.5687e-07 2.7083e-25
6.5731e-07 2.6818e-25
6.5775e-07 2.6423e-25
6.5819e-07 2.6097e-25
6.5863e-07 2.588e-25
6.5907e-07 2.5558e-25
6.5951e-07 2.5198e-25
6.5995e-07 2.501e-25
6.6039e-07 2.4781e-25
6.6083e-07 2.4407e-25
6.6127e-07 2.416e-25
6.6171e-07 2.3875e-25
6.6215e-07 2.3637e-25
6.626e-07 2.3478e-25
6.6304e-07 2.3309e-25
6.6348e-07 2.3128e-25
6.6392e-07 2.2906e-25
6.6437e-07 2.2742e-25
6.6481e-07 2.2511e-25
6.6525e-07 2.2268e-25
6.657e-07 2.2038e-25
6.6614e-07 2.1817e-25
6.6659e-07 2.1586e-25
6.6703e-07 2.1352e-25
6.6748e-07 2.1126e-25
6.6792e-07 2.0902e-25
6.6837e-07 2.0693e-25
6.6881e-07 2.0483e-25
6.6926e-07 2.0268e-25
6.6971e-07 2.0046e-25
6.7015e-07 1.9852e-25
6.706e-07 1.9652e-25
6.7105e-07 1.9451e-25
6.715e-07 1.9262e-25
6.7195e-07 1.9089e-25
6.7239e-07 1.8924e-25
6.7284e-07 1.8749e-25
6.7329e-07 1.8573e-25
6.7374e-07 1.8412e-25
6.7419e-07 1.8257e-25
6.7464e-07 1.8103e-25
6.7509e-07 1.7947e-25
6.7554e-07 1.7802e-25
6.7599e-07 1.7664e-25
6.7644e-07 1.7529e-25
6.769e-07 1.7389e-25
6.7735e-07 1.7243e-25
6.778e-07 1.71e-25
6.7825e-07 1.6984e-25
6.787e-07 1.6879e-25
6.7916e-07 1.6746e-25
6.7961e-07 1.6634e-25
6.8006e-07 1.6548e-25
6.8052e-07 1.6465e-25
6.8097e-07 1.6369e-25
6.8143e-07 1.6283e-25
6.8188e-07 1.6241e-25
6.8234e-07 1.6207e-25
6.8279e-07 1.6152e-25
6.8325e-07 1.6042e-25
6.837e-07 1.5995e-25
6.8416e-07 1.5972e-25
6.8462e-07 1.5906e-25
6.8507e-07 1.5757e-25
6.8553e-07 1.567e-25
6.8599e-07 1.5688e-25
6.8645e-07 1.6013e-25
6.869e-07 1.6888e-25
6.8736e-07 1.7662e-25
6.8782e-07 1.7233e-25
6.8828e-07 1.6519e-25
6.8874e-07 1.6276e-25
6.892e-07 1.6293e-25
6.8966e-07 1.6159e-25
6.9012e-07 1.5866e-25
6.9058e-07 1.5545e-25
6.9104e-07 1.5268e-25
6.915e-07 1.5048e-25
6.9196e-07 1.4959e-25
6.9243e-07 1.5021e-25
6.9289e-07 1.5157e-25
6.9335e-07 1.5273e-25
6.9381e-07 1.5279e-25
6.9428e-07 1.5196e-25
6.9474e-07 1.4873e-25
6.952e-07 1.4624e-25
6.9567e-07 1.4466e-25
6.9613e-07 1.414e-25
6.966e-07 1.3619e-25
6.9706e-07 1.3184e-25
6.9753e-07 1.3057e-25
6.9799e-07 1.3108e-25
6.9846e-07 1.3241e-25
6.9892e-07 1.3494e-25
6.9939e-07 1.3517e-25
6.9986e-07 1.3372e-25
7.0032e-07 1.3285e-25
7.0079e-07 1.3276e-25
7.0126e-07 1.3126e-25
7.0173e-07 1.3081e-25
7.022e-07 1.2966e-25
7.0267e-07 1.2819e-25
7.0313e-07 1.2484e-25
7.036e-07 1.2122e-25
7.0407e-07 1.2159e-25
7.0454e-07 1.2167e-25
7.0501e-07 1.2182e-25
7.0548e-07 1.224e-25
7.0595e-07 1.215e-25
7.0643e-07 1.2005e-25
7.069e-07 1.1867e-25
7.0737e-07 1.1808e-25
7.0784e-07 1.173e-25
7.0831e-07 1.1603e-25
7.0879e-07 1.1435e-25
7.0926e-07 1.1418e-25
7.0973e-07 1.1441e-25
7.1021e-07 1.1408e-25
7.1068e-07 1.1316e-25
7.1115e-07 1.1166e-25
7.1163e-07 1.102e-25
7.121e-07 1.0995e-25
7.1258e-07 1.1009e-25
7.1306e-07 1.1109e-25
7.1353e-07 1.1102e-25
7.1401e-07 1.1102e-25
7.1448e-07 1.1252e-25
7.1496e-07 1.1392e-25
7.1544e-07 1.1494e-25
7.1592e-07 1.1591e-25
7.1639e-07 1.21e-25
7.1687e-07 1.2742e-25
7.1735e-07 1.3206e-25
7.1783e-07 1.3197e-25
7.1831e-07 1.3028e-25
7.1879e-07 1.2864e-25
7.1927e-07 1.2837e-25
7.1975e-07 1.2929e-25
7.2023e-07 1.2583e-25
7.2071e-07 1.2194e-25
7.2119e-07 1.1387e-25
7.2167e-07 1.0881e-25
7.2215e-07 1.0601e-25
7.2263e-07 1.0621e-25
7.2312e-07 1.0953e-25
7.236e-07 1.1341e-25
7.2408e-07 1.1326e-25
7.2457e-07 1.1293e-25
7.2505e-07 1.1334e-25
7.2553e-07 1.1177e-25
7.2602e-07 1.1152e-25
7.265e-07 1.1008e-25
7.2699e-07 1.0824e-25
7.2747e-07 1.0765e-25
7.2796e-07 1.0799e-25
7.2844e-07 1.0455e-25
7.2893e-07 1.031e-25
7.2942e-07 1.0488e-25
7.299e-07 1.0481e-25
7.3039e-07 1.0398e-25
7.3088e-07 1.0277e-25
7.3137e-07 1.0197e-25
7.3185e-07 9.9288e-26
7.3234e-07 9.4131e-26
7.3283e-07 9.1702e-26
7.3332e-07 9.1308e-26
7.3381e-07 8.852e-26
7.343e-07 8.7266e-26
7.3479e-07 8.8048e-26
7.3528e-07 8.8851e-26
7.3577e-07 8.9102e-26
7.3626e-07 8.9543e-26
7.3675e-07 8.9358e-26
7.3724e-07 8.7678e-26
7.3774e-07 8.5754e-26
7.3823e-07 8.5487e-26
7.3872e-07 8.5058e-26
7.3921e-07 8.4296e-26
7.3971e-07 8.373e-26
7.402e-07 8.2255e-26
7.407e-07 8.1444e-26
7.4119e-07 8.111e-26
7.4169e-07 8.0123e-26
7.4218e-07 8.0171e-26
7.4268e-07 7.9851e-26
7.4317e-07 7.9094e-26
7.4367e-07 7.8726e-26
7.4416e-07 7.8931e-26
7.4466e-07 7.8641e-26
7.4516e-07 7.8497e-26
7.4565e-07 7.8725e-26
7.4615e-07 7.857e-26
7.4665e-07 7.8497e-26
7.4715e-07 7.8472e-26
7.4765e-07 7.8212e-26
7.4815e-07 7.7805e-26
7.4865e-07 7.7077e-26
7.4915e-07 7.6308e-26
7.4965e-07 7.5543e-26
7.5015e-07 7.4732e-26
7.5065e-07 7.377e-26
7.5115e-07 7.2511e-26
7.5165e-07 7.1281e-26
7.5215e-07 7.0115e-26
7.5265e-07 6.9035e-26
7.5315e-07 6.8006e-26
7.5366e-07 6.7124e-26
7.5416e-07 6.6344e-26
7.5466e-07 6.5661e-26
7.5517e-07 6.5103e-26
7.5567e-07 6.4621e-26
7.5618e-07 6.4292e-26
7.5668e-07 6.4167e-26
7.5719e-07 6.4238e-26
7.5769e-07 6.4489e-26
7.582e-07 6.5102e-26
7.587e-07 6.6464e-26
7.5921e-07 6.8856e-26
7.5972e-07 7.3506e-26
7.6022e-07 8.1277e-26
7.6073e-07 8.6406e-26
7.6124e-07 8.2897e-26
7.6175e-07 7.9174e-26
7.6225e-07 7.8547e-26
7.6276e-07 8.0379e-26
7.6327e-07 8.1471e-26
7.6378e-07 8.0664e-26
7.6429e-07 7.9127e-26
7.648e-07 7.7367e-26
7.6531e-07 7.5595e-26
7.6582e-07 7.3704e-26
7.6633e-07 7.1802e-26
7.6685e-07 6.9853e-26
7.6736e-07 6.8077e-26
7.6787e-07 6.6603e-26
7.6838e-07 6.5525e-26
7.689e-07 6.474e-26
7.6941e-07 6.3908e-26
7.6992e-07 6.2985e-26
7.7044e-07 6.1924e-26
7.7095e-07 6.1092e-26
7.7146e-07 6.0732e-26
7.7198e-07 6.0984e-26
7.7249e-07 6.1211e-26
7.7301e-07 6.1281e-26
7.7353e-07 6.1312e-26
7.7404e-07 6.1557e-26
7.7456e-07 6.1959e-26
7.7508e-07 6.2614e-26
7.7559e-07 6.2847e-26
7.7611e-07 6.3179e-26
7.7663e-07 6.3551e-26
7.7715e-07 6.4042e-26
7.7767e-07 6.4518e-26
7.7819e-07 6.4702e-26
7.787e-07 6.4923e-26
7.7922e-07 6.5217e-26
7.7974e-07 6.5149e-26
7.8026e-07 6.4745e-26
7.8079e-07 6.4343e-26
7.8131e-07 6.388e-26
7.8183e-07 6.3429e-26
7.8235e-07 6.2841e-26
7.8287e-07 6.2107e-26
7.8339e-07 6.172e-26
7.8392e-07 6.1567e-26
7.8444e-07 6.1289e-26
7.8496e-07 6.0895e-26
7.8549e-07 6.0401e-26
7.8601e-07 6.0702e-26
7.8654e-07 6.1578e-26
7.8706e-07 6.2337e-26
7.8759e-07 6.2311e-26
7.8811e-07 6.2023e-26
7.8864e-07 6.2379e-26
7.8917e-07 6.3314e-26
7.8969e-07 6.3644e-26
7.9022e-07 6.265e-26
7.9075e-07 6.2024e-26
7.9127e-07 6.1341e-26
7.918e-07 6.0685e-26
7.9233e-07 6.0203e-26
7.9286e-07 5.892e-26
7.9339e-07 5.1621e-26
7.9392e-07 3.3221e-26
7.9445e-07 1.2391e-26
7.9498e-07 2.1499e-27
7.9551e-07 4.2204e-29
7.9604e-07 0
7.9657e-07 0
7.971e-07 0
7.9764e-07 0
7.9817e-07 0
7.987e-07 0
7.9923e-07 0
7.9977e-07 0
8.003e-07 0
8.0083e-07 0
8.0137e-07 0
8.019e-07 0
8.0244e-07 0
8.0297e-07 0
8.0351e-07 0
8.0405e-07 0
8.0458e-07 0
8.0512e-07 0
8.0566e-07 0
8.062e-07 0
8.0673e-07 0
8.0727e-07 0
8.0781e-07 0
8.0835e-07 0
8.0889e-07 0
8.0943e-07 0
8.0997e-07 0
8.1051e-07 0
8.1105e-07 0
8.1159e-07 0
8.1213e-07 0
8.1268e-07 0
8.1322e-07 0
8.1376e-07 0
8.1431e-07 0
8.1485e-07 0
8.1539e-07 0
8.1594e-07 0
8.1648e-07 0
8.1703e-07 0
8.1757e-07 0
8.1812e-07 0
8.1866e-07 0
8.1921e-07 0
8.1976e-07 0
8.203e-07 0
8.2085e-07 0
8.214e-07 0
8.2195e-07 0
8.225e-07 0
8.2304e-07 0
8.2359e-07 0
8.2414e-07 0
8.2469e-07 0
8.2524e-07 0
8.258e-07 0
8.2635e-07 0
8.269e-07 0
8.2745e-07 0
8.28e-07 0
8.2855e-07 0
8.2911e-07 0
8.2966e-07 0
8.3021e-07 0
8.3077e-07 0
8.3132e-07 0
8.3188e-07 0
8.3243e-07 0
8.3299e-07 0
8.3354e-07 0
8.341e-07 0
8.3466e-07 0
8.3522e-07 0
8.3577e-07 0
8.3633e-07 0
8.3689e-07 0
8.3745e-07 0
8.3801e-07 0
8.3857e-07 0
8.3913e-07 0
8.3969e-07 0
8.4025e-07 0
8.4081e-07 0
8.4137e-07 0
8.4193e-07 0
8.4249e-07 0
8.4305e-07 0
8.4362e-07 0
8.4418e-07 0
8.4474e-07 0
8.4531e-07 0
8.4587e-07 0
8.4644e-07 0
8.47e-07 0
8.4757e-07 0
8.4813e-07 0
8.487e-07 0
8.4926e-07 0
8.4983e-07 0
8.504e-07 0
8.5097e-07 0
8.5153e-07 0
8.521e-07 0
8.5267e-07 0
8.5324e-07 0
8.5381e-07 0
8.5438e-07 0
8.5495e-07 0
8.5552e-07 0
8.5609e-07 0
8.5666e-07 0
8.5723e-07 0
8.5781e-07 0
8.5838e-07 0
8.5895e-07 0
8.5952e-07 0
8.601e-07 0
8.6067e-07 0
8.6125e-07 0
8.6182e-07 0
8.624e-07 0
8.6297e-07 0
8.6355e-07 0
8.6412e-07 0
8.647e-07 0
8.6528e-07 0
8.6586e-07 0
8.6643e-07 0
8.6701e-07 0
8.6759e-07 0
8.6817e-07 0
8.6875e-07 0
8.6933e-07 0
8.6991e-07 0
8.7049e-07 0
8.7107e-07 0
8.7165e-07 0
8.7223e-07 0
8.7282e-07 0
8.734e-07 0
8.7398e-07 0
8.7457e-07 0
8.7515e-07 0
8.7573e-07 0
8.7632e-07 0
8.769e-07 0
8.7749e-07 0
8.7807e-07 0
8.7866e-07 0
8.7925e-07 0
8.7983e-07 0
8.8042e-07 0
8.8101e-07 0
8.816e-07 0
8.8218e-07 0
8.8277e-07 0
8.8336e-07 0
8.8395e-07 0
8.8454e-07 0
8.8513e-07 0
8.8572e-07 0
8.8631e-07 0
8.8691e-07 0
8.875e-07 0
8.8809e-07 0
8.8868e-07 0
8.8928e-07 0
8.8987e-07 0
8.9046e-07 0
8.9106e-07 0
8.9165e-07 0
8.9225e-07 0
8.9284e-07 0
8.9344e-07 0
8.9404e-07 0
8.9463e-07 0
8.9523e-07 0
8.9583e-07 0
8.9642e-07 0
8.9702e-07 0
8.9762e-07 0
8.9822e-07 0
8.9882e-07 0
8.9942e-07 0
9.0002e-07 0
9.0062e-07 0
9.0122e-07 0
9.0182e-07 0
9.0243e-07 0
9.0303e-07 0
9.0363e-07 0
9.0423e-07 0
9.0484e-07 0
9.0544e-07 0
9.0605e-07 0
9.0665e-07 0
9.0726e-07 0
9.0786e-07 0
9.0847e-07 0
9.0907e-07 0
9.0968e-07 0
9.1029e-07 0
9.1089e-07 0
9.115e-07 0
9.1211e-07 0
9.1272e-07 0
9.1333e-07 0
9.1394e-07 0
9.1455e-07 0
9.1516e-07 0
9.1577e-07 0
9.1638e-07 0
9.1699e-07 0
9.176e-07 0
9.1822e-07 0
9.1883e-07 0
9.1944e-07 0
9.2006e-07 0
9.2067e-07 0
9.2129e-07 0
9.219e-07 0
9.2252e-07 0
9.2313e-07 0
9.2375e-07 0
9.2436e-07 0
9.2498e-07 0
9.256e-07 0
9.2622e-07 0
9.2683e-07 0
9.2745e-07 0
9.2807e-07 0
9.2869e-07 0
9.2931e-07 0
9.2993e-07 0
9.3055e-07 0
9.3117e-07 0
9.3179e-07 0
9.3242e-07 0
9.3304e-07 0
9.3366e-07 0
9.3429e-07 0
9.3491e-07 0
9.3553e-07 0
9.3616e-07 0
9.3678e-07 0
9.3741e-07 0
9.3803e-07 0
9.3866e-07 0
9.3929e-07 0
9.3991e-07 0
9.4054e-07 0
9.4117e-07 0
9.418e-07 0
9.4242e-07 0
9.4305e-07 0
9.4368e-07 0
9.4431e-07 0
9.4494e-07 0
9.4557e-07 0
9.462e-07 0
9.4684e-07 0
9.4747e-07 0
9.481e-07 0
9.4873e-07 0
9.4937e-07 0
9.5e-07 0
