2.8e-07 3.8007e-22
2.8047e-07 3.6627e-22
2.8094e-07 3.4689e-22
2.8141e-07 3.2882e-22
2.8188e-07 3.1614e-22
2.8235e-07 3.0416e-22
2.8282e-07 2.9582e-22
2.8329e-07 2.8181e-22
2.8377e-07 2.6481e-22
2.8424e-07 2.5233e-22
2.8472e-07 2.3912e-22
2.8519e-07 2.2759e-22
2.8567e-07 2.1856e-22
2.8615e-07 2.086e-22
2.8663e-07 1.9894e-22
2.8711e-07 1.875e-22
2.8759e-07 1.7465e-22
2.8807e-07 1.6453e-22
2.8855e-07 1.5626e-22
2.8903e-07 1.4791e-22
2.8951e-07 1.3993e-22
2.9e-07 1.3304e-22
2.9048e-07 1.264e-22
2.9097e-07 1.1846e-22
2.9145e-07 1.1009e-22
2.9194e-07 1.0339e-22
2.9243e-07 9.8252e-23
2.9292e-07 9.2517e-23
2.9341e-07 8.6132e-23
2.939e-07 8.0928e-23
2.9439e-07 7.6626e-23
2.9488e-07 7.1718e-23
2.9538e-07 6.6539e-23
2.9587e-07 6.1892e-23
2.9637e-07 5.8105e-23
2.9686e-07 5.4612e-23
2.9736e-07 5.0771e-23
2.9785e-07 4.7178e-23
2.9835e-07 4.4343e-23
2.9885e-07 4.1611e-23
2.9935e-07 3.8582e-23
2.9985e-07 3.5931e-23
3.0035e-07 3.3726e-23
3.0085e-07 3.1336e-23
3.0136e-07 2.9061e-23
3.0186e-07 2.7341e-23
3.0237e-07 2.5596e-23
3.0287e-07 2.3582e-23
3.0338e-07 2.1965e-23
3.0389e-07 2.0849e-23
3.0439e-07 1.9524e-23
3.049e-07 1.7822e-23
3.0541e-07 1.6439e-23
3.0592e-07 1.5631e-23
3.0643e-07 1.4802e-23
3.0695e-07 1.3522e-23
3.0746e-07 1.2318e-23
3.0797e-07 1.1616e-23
3.0849e-07 1.1115e-23
3.0901e-07 1.0354e-23
3.0952e-07 9.3486e-24
3.1004e-07 8.577e-24
3.1056e-07 8.1314e-24
3.1108e-07 7.7474e-24
3.116e-07 7.2127e-24
3.1212e-07 6.4864e-24
3.1264e-07 5.8964e-24
3.1316e-07 5.681e-24
3.1369e-07 5.4745e-24
3.1421e-07 4.8753e-24
3.1474e-07 4.3076e-24
3.1526e-07 4.1504e-24
3.1579e-07 3.9682e-24
3.1632e-07 3.5151e-24
3.1685e-07 3.224e-24
3.1738e-07 3.2006e-24
3.1791e-07 2.992e-24
3.1844e-07 2.4919e-24
3.1897e-07 2.2003e-24
3.195e-07 2.3128e-24
3.2004e-07 2.3204e-24
3.2057e-07 1.9041e-24
3.2111e-07 1.4833e-24
3.2165e-07 1.4847e-24
3.2218e-07 1.7324e-24
3.2272e-07 1.6727e-24
3.2326e-07 1.2276e-24
3.238e-07 8.8684e-25
3.2435e-07 9.5276e-25
3.2489e-07 1.1725e-24
3.2543e-07 1.1222e-24
3.2597e-07 8.2019e-25
3.2652e-07 5.8447e-25
3.2707e-07 5.921e-25
3.2761e-07 7.6438e-25
3.2816e-07 8.0089e-25
3.2871e-07 5.6502e-25
3.2926e-07 3.3302e-25
3.2981e-07 3.1901e-25
3.3036e-07 4.447e-25
3.3091e-07 5.3219e-25
3.3147e-07 4.6123e-25
3.3202e-07 2.9155e-25
3.3258e-07 1.9061e-25
3.3313e-07 2.3483e-25
3.3369e-07 3.1804e-25
3.3425e-07 2.8943e-25
3.3481e-07 1.7936e-25
3.3537e-07 1.0459e-25
3.3593e-07 9.809e-26
3.3649e-07 1.49e-25
3.3705e-07 2.1183e-25
3.3761e-07 2.0918e-25
3.3818e-07 1.3439e-25
3.3874e-07 7.2056e-26
3.3931e-07 6.4382e-26
3.3988e-07 9.1183e-26
3.4045e-07 1.0342e-25
3.4102e-07 7.2794e-26
3.4159e-07 3.8198e-26
3.4216e-07 2.5067e-26
3.4273e-07 2.6584e-26
3.433e-07 4.6897e-26
3.4388e-07 7.4957e-26
3.4445e-07 7.5188e-26
3.4503e-07 4.7416e-26
3.456e-07 2.4961e-26
3.4618e-07 1.6911e-26
3.4676e-07 1.9431e-26
3.4734e-07 2.4854e-26
3.4792e-07 2.0445e-26
3.485e-07 1.1374e-26
3.4909e-07 7.1218e-27
3.4967e-07 6.3396e-27
3.5025e-07 6.9767e-27
3.5084e-07 1.3088e-26
3.5143e-07 2.1658e-26
3.5201e-07 2.0465e-26
3.526e-07 1.2048e-26
3.5319e-07 6.0068e-27
3.5378e-07 3.1549e-27
3.5437e-07 2.4529e-27
3.5497e-07 2.8344e-27
3.5556e-07 2.4708e-27
3.5615e-07 1.6036e-27
3.5675e-07 1.3015e-27
3.5735e-07 1.1286e-27
3.5794e-07 7.6383e-28
3.5854e-07 9.8311e-28
3.5914e-07 2.5167e-27
3.5974e-07 3.8641e-27
3.6034e-07 3.24e-27
3.6095e-07 1.7809e-27
3.6155e-07 8.9359e-28
3.6215e-07 5.1318e-28
3.6276e-07 3.6908e-28
3.6337e-07 3.1495e-28
3.6397e-07 2.9889e-28
3.6458e-07 3.2822e-28
3.6519e-07 3.3339e-28
3.658e-07 2.4854e-28
3.6642e-07 1.489e-28
3.6703e-07 9.1259e-29
3.6764e-07 7.4944e-29
3.6826e-07 9.3582e-29
3.6887e-07 1.0609e-28
3.6949e-07 8.4248e-29
3.7011e-07 5.0173e-29
3.7073e-07 2.8091e-29
3.7135e-07 2.1422e-29
3.7197e-07 2.2813e-29
3.7259e-07 2.7837e-29
3.7321e-07 4.5913e-29
3.7384e-07 7.76e-29
3.7446e-07 9.0969e-28
3.7509e-07 3.6858e-27
3.7571e-07 5.7593e-27
3.7634e-07 4.1933e-27
3.7697e-07 1.9117e-27
3.776e-07 8.7331e-28
3.7823e-07 3.4227e-28
3.7887e-07 1.209e-28
3.795e-07 8.2609e-29
3.8013e-07 8.536e-29
3.8077e-07 9.2654e-29
3.8141e-07 9.8534e-29
3.8204e-07 1.0232e-28
3.8268e-07 1.0381e-28
3.8332e-07 1.0188e-28
3.8396e-07 9.544e-29
3.846e-07 8.6864e-29
3.8525e-07 7.9232e-29
3.8589e-07 8.1722e-29
3.8654e-07 1.1639e-28
3.8718e-07 2.9041e-28
3.8783e-07 5.0656e-28
3.8848e-07 6.9689e-28
3.8913e-07 9.7493e-28
3.8978e-07 1.1809e-27
3.9043e-07 1.1603e-27
3.9108e-07 1.054e-27
3.9174e-07 1.0246e-27
3.9239e-07 9.1987e-28
3.9305e-07 7.0581e-28
3.9371e-07 6.1998e-28
3.9436e-07 6.4086e-28
3.9502e-07 6.2591e-28
3.9568e-07 5.6371e-28
3.9635e-07 5.1194e-28
3.9701e-07 4.9748e-28
3.9767e-07 4.5128e-28
3.9834e-07 3.9521e-28
3.99e-07 4.1463e-28
3.9967e-07 4.3643e-28
4.0034e-07 4.4464e-28
4.0101e-07 4.8845e-28
4.0168e-07 5.4868e-28
4.0235e-07 5.9433e-28
4.0302e-07 5.9755e-28
4.037e-07 5.7897e-28
4.0437e-07 5.7241e-28
4.0505e-07 5.8754e-28
4.0573e-07 6.4739e-28
4.064e-07 7.8009e-28
4.0708e-07 9.8915e-28
4.0776e-07 1.2256e-27
4.0845e-07 1.4269e-27
4.0913e-07 1.5739e-27
4.0981e-07 1.6615e-27
4.105e-07 1.6917e-27
4.1118e-07 1.6818e-27
4.1187e-07 1.6213e-27
4.1256e-07 1.5066e-27
4.1325e-07 1.4248e-27
4.1394e-07 1.4805e-27
4.1463e-07 1.6773e-27
4.1533e-07 1.9527e-27
4.1602e-07 2.2339e-27
4.1672e-07 2.473e-27
4.1741e-07 2.6355e-27
4.1811e-07 2.686e-27
4.1881e-07 2.6429e-27
4.1951e-07 2.6234e-27
4.2021e-07 2.7134e-27
4.2092e-07 2.9615e-27
4.2162e-07 3.3855e-27
4.2232e-07 3.943e-27
4.2303e-07 4.5711e-27
4.2374e-07 5.2063e-27
4.2445e-07 5.7916e-27
4.2516e-07 6.2206e-27
4.2587e-07 6.3858e-27
4.2658e-07 6.3039e-27
4.2729e-07 6.0634e-27
4.2801e-07 5.7555e-27
4.2872e-07 5.5098e-27
4.2944e-07 5.4459e-27
4.3016e-07 5.6507e-27
4.3088e-07 6.1433e-27
4.316e-07 6.8171e-27
4.3232e-07 7.4605e-27
4.3304e-07 7.9086e-27
4.3377e-07 8.0866e-27
4.3449e-07 8.0525e-27
4.3522e-07 7.9915e-27
4.3595e-07 8.0699e-27
4.3667e-07 8.4098e-27
4.374e-07 9.098e-27
4.3814e-07 1.0181e-26
4.3887e-07 1.157e-26
4.396e-07 1.3055e-26
4.4034e-07 1.4535e-26
4.4107e-07 1.5947e-26
4.4181e-07 1.728e-26
4.4255e-07 1.8194e-26
4.4329e-07 1.838e-26
4.4403e-07 1.7911e-26
4.4477e-07 1.7118e-26
4.4552e-07 1.6089e-26
4.4626e-07 1.5223e-26
4.4701e-07 1.4937e-26
4.4776e-07 1.543e-26
4.485e-07 1.6505e-26
4.4925e-07 1.7822e-26
4.5001e-07 1.9065e-26
4.5076e-07 1.9866e-26
4.5151e-07 2.0118e-26
4.5227e-07 2.01e-26
4.5302e-07 1.9987e-26
4.5378e-07 2.0115e-26
4.5454e-07 2.1089e-26
4.553e-07 2.2491e-26
4.5606e-07 2.3865e-26
4.5682e-07 2.5909e-26
4.5759e-07 2.8795e-26
4.5835e-07 3.1933e-26
4.5912e-07 3.5031e-26
4.5989e-07 3.794e-26
4.6065e-07 4.0253e-26
4.6142e-07 4.149e-26
4.622e-07 4.1516e-26
4.6297e-07 4.0431e-26
4.6374e-07 3.85e-26
4.6452e-07 3.6327e-26
4.653e-07 3.4682e-26
4.6607e-07 3.42e-26
4.6685e-07 3.5109e-26
4.6763e-07 3.6969e-26
4.6842e-07 3.9301e-26
4.692e-07 4.1594e-26
4.6998e-07 4.3147e-26
4.7077e-07 4.3664e-26
4.7156e-07 4.3584e-26
4.7234e-07 4.3529e-26
4.7313e-07 4.3871e-26
4.7393e-07 4.4868e-26
4.7472e-07 4.6837e-26
4.7551e-07 4.9822e-26
4.7631e-07 5.3861e-26
4.771e-07 5.867e-26
4.779e-07 6.4027e-26
4.787e-07 6.9706e-26
4.795e-07 7.5436e-26
4.803e-07 8.0732e-26
4.8111e-07 8.4948e-26
4.8191e-07 8.7407e-26
4.8272e-07 8.7849e-26
4.8352e-07 8.6673e-26
4.8433e-07 8.46e-26
4.8514e-07 8.1869e-26
4.8595e-07 7.9105e-26
4.8676e-07 7.7282e-26
4.8758e-07 7.7152e-26
4.8839e-07 7.8645e-26
4.8921e-07 8.1039e-26
4.9003e-07 8.3576e-26
4.9085e-07 8.5815e-26
4.9167e-07 8.7447e-26
4.9249e-07 8.8405e-26
4.9331e-07 8.9039e-26
4.9414e-07 8.9736e-26
4.9496e-07 9.0993e-26
4.9579e-07 9.3253e-26
4.9662e-07 9.6819e-26
4.9745e-07 1.0178e-25
4.9828e-07 1.0818e-25
4.9912e-07 1.1589e-25
4.9995e-07 1.245e-25
5.0079e-07 1.341e-25
5.0162e-07 1.4429e-25
5.0246e-07 1.5437e-25
5.033e-07 1.6487e-25
5.0415e-07 1.723e-25
5.0499e-07 1.7442e-25
5.0583e-07 1.7516e-25
5.0668e-07 1.747e-25
5.0753e-07 1.7269e-25
5.0837e-07 1.6915e-25
5.0922e-07 1.6547e-25
5.1008e-07 1.6239e-25
5.1093e-07 1.6044e-25
5.1178e-07 1.6031e-25
5.1264e-07 1.6172e-25
5.135e-07 1.64e-25
5.1435e-07 1.6694e-25
5.1521e-07 1.7006e-25
5.1608e-07 1.73e-25
5.1694e-07 1.7568e-25
5.178e-07 1.7833e-25
5.1867e-07 1.8116e-25
5.1954e-07 1.8431e-25
5.204e-07 1.8805e-25
5.2127e-07 1.9272e-25
5.2215e-07 1.9859e-25
5.2302e-07 2.0595e-25
5.2389e-07 2.146e-25
5.2477e-07 2.2338e-25
5.2565e-07 2.3189e-25
5.2653e-07 2.4092e-25
5.2741e-07 2.5021e-25
5.2829e-07 2.5905e-25
5.2917e-07 2.6754e-25
5.3006e-07 2.7535e-25
5.3094e-07 2.816e-25
5.3183e-07 2.8651e-25
5.3272e-07 2.8986e-25
5.3361e-07 2.9175e-25
5.345e-07 2.9236e-25
5.354e-07 2.9225e-25
5.3629e-07 2.9197e-25
5.3719e-07 2.9232e-25
5.3809e-07 2.9413e-25
5.3899e-07 2.9745e-25
5.3989e-07 3.0344e-25
5.4079e-07 3.1132e-25
5.4169e-07 3.1778e-25
5.426e-07 3.2281e-25
5.4351e-07 3.2805e-25
5.4442e-07 3.3279e-25
5.4533e-07 3.3763e-25
5.4624e-07 3.4136e-25
5.4715e-07 3.4298e-25
5.4807e-07 3.44e-25
5.4898e-07 3.4564e-25
5.499e-07 3.4777e-25
5.5082e-07 3.4979e-25
5.5174e-07 3.5188e-25
5.5266e-07 3.5456e-25
5.5359e-07 3.5801e-25
5.5451e-07 3.6215e-25
5.5544e-07 3.6717e-25
5.5637e-07 3.7324e-25
5.573e-07 3.8053e-25
5.5823e-07 3.8892e-25
5.5917e-07 3.982e-25
5.601e-07 4.0802e-25
5.6104e-07 4.1795e-25
5.6198e-07 4.2738e-25
5.6291e-07 4.3603e-25
5.6386e-07 4.4371e-25
5.648e-07 4.5065e-25
5.6574e-07 4.5743e-25
5.6669e-07 4.6485e-25
5.6764e-07 4.7472e-25
5.6859e-07 4.8621e-25
5.6954e-07 4.9341e-25
5.7049e-07 4.9592e-25
5.7144e-07 4.9942e-25
5.724e-07 5.0493e-25
5.7336e-07 5.0784e-25
5.7431e-07 5.0907e-25
5.7527e-07 5.0784e-25
5.7624e-07 5.0478e-25
5.772e-07 5.0044e-25
5.7816e-07 4.9466e-25
5.7913e-07 4.8879e-25
5.801e-07 4.8337e-25
5.8107e-07 4.7825e-25
5.8204e-07 4.7406e-25
5.8301e-07 4.7075e-25
5.8399e-07 4.6815e-25
5.8497e-07 4.6683e-25
5.8594e-07 4.6814e-25
5.8692e-07 4.7394e-25
5.8791e-07 4.8615e-25
5.8889e-07 4.9788e-25
5.8987e-07 5.0416e-25
5.9086e-07 5.0574e-25
5.9185e-07 5.0835e-25
5.9284e-07 5.1106e-25
5.9383e-07 5.19e-25
5.9482e-07 5.3053e-25
5.9582e-07 5.365e-25
5.9681e-07 5.4235e-25
5.9781e-07 5.4987e-25
5.9881e-07 5.537e-25
5.9981e-07 5.5429e-25
6.0081e-07 5.5409e-25
6.0182e-07 5.5206e-25
6.0282e-07 5.4847e-25
6.0383e-07 5.4379e-25
6.0484e-07 5.381e-25
6.0585e-07 5.3115e-25
6.0687e-07 5.2309e-25
6.0788e-07 5.1444e-25
6.089e-07 5.0524e-25
6.0992e-07 4.9641e-25
6.1094e-07 4.8945e-25
6.1196e-07 4.843e-25
6.1298e-07 4.7933e-25
6.14e-07 4.7377e-25
6.1503e-07 4.6794e-25
6.1606e-07 4.6203e-25
6.1709e-07 4.5619e-25
6.1812e-07 4.5056e-25
6.1916e-07 4.4528e-25
6.2019e-07 4.4029e-25
6.2123e-07 4.3544e-25
6.2227e-07 4.3078e-25
6.2331e-07 4.2628e-25
6.2435e-07 4.2219e-25
6.2539e-07 4.1934e-25
6.2644e-07 4.1922e-25
6.2749e-07 4.2023e-25
6.2854e-07 4.1842e-25
6.2959e-07 4.0884e-25
6.3064e-07 3.9944e-25
6.3169e-07 3.9397e-25
6.3275e-07 3.8744e-25
6.3381e-07 3.7932e-25
6.3487e-07 3.7202e-25
6.3593e-07 3.6519e-25
6.3699e-07 3.5834e-25
6.3806e-07 3.5131e-25
6.3912e-07 3.444e-25
6.4019e-07 3.3755e-25
6.4126e-07 3.3096e-25
6.4234e-07 3.2464e-25
6.4341e-07 3.1995e-25
6.4449e-07 3.179e-25
6.4556e-07 3.1788e-25
6.4664e-07 3.1911e-25
6.4772e-07 3.2026e-25
6.4881e-07 3.1309e-25
6.4989e-07 3.0246e-25
6.5098e-07 2.9806e-25
6.5207e-07 2.9417e-25
6.5316e-07 2.8758e-25
6.5425e-07 2.8142e-25
6.5534e-07 2.7878e-25
6.5644e-07 2.7323e-25
6.5754e-07 2.6583e-25
6.5864e-07 2.5857e-25
6.5974e-07 2.5136e-25
6.6084e-07 2.4449e-25
6.6195e-07 2.3803e-25
6.6305e-07 2.3302e-25
6.6416e-07 2.2786e-25
6.6527e-07 2.2257e-25
6.6638e-07 2.1681e-25
6.675e-07 2.1125e-25
6.6861e-07 2.0577e-25
6.6973e-07 2.005e-25
6.7085e-07 1.9545e-25
6.7197e-07 1.9085e-25
6.731e-07 1.8655e-25
6.7422e-07 1.825e-25
6.7535e-07 1.7872e-25
6.7648e-07 1.7515e-25
6.7761e-07 1.7177e-25
6.7874e-07 1.6872e-25
6.7988e-07 1.6596e-25
6.8101e-07 1.6381e-25
6.8215e-07 1.621e-25
6.8329e-07 1.6054e-25
6.8444e-07 1.5894e-25
6.8558e-07 1.5937e-25
6.8673e-07 1.6397e-25
6.8788e-07 1.6769e-25
6.8903e-07 1.6381e-25
6.9018e-07 1.5788e-25
6.9133e-07 1.5289e-25
6.9249e-07 1.5107e-25
6.9365e-07 1.511e-25
6.9481e-07 1.4798e-25
6.9597e-07 1.4153e-25
6.9713e-07 1.3485e-25
6.983e-07 1.3277e-25
6.9946e-07 1.3319e-25
7.0063e-07 1.3273e-25
7.0181e-07 1.294e-25
7.0298e-07 1.2546e-25
7.0415e-07 1.2238e-25
7.0533e-07 1.2145e-25
7.0651e-07 1.1962e-25
7.0769e-07 1.172e-25
7.0888e-07 1.1493e-25
7.1006e-07 1.1337e-25
7.1125e-07 1.1177e-25
7.1244e-07 1.108e-25
7.1363e-07 1.1112e-25
7.1482e-07 1.1376e-25
7.1602e-07 1.1902e-25
7.1721e-07 1.2688e-25
7.1841e-07 1.3014e-25
7.1961e-07 1.2643e-25
7.2082e-07 1.1811e-25
7.2202e-07 1.1052e-25
7.2323e-07 1.0975e-25
7.2444e-07 1.1195e-25
7.2565e-07 1.1094e-25
7.2686e-07 1.0902e-25
7.2808e-07 1.0654e-25
7.293e-07 1.0495e-25
7.3052e-07 1.0274e-25
7.3174e-07 9.8242e-26
7.3296e-07 9.2154e-26
7.3419e-07 8.8582e-26
7.3541e-07 8.8903e-26
7.3664e-07 8.8298e-26
7.3788e-07 8.6216e-26
7.3911e-07 8.3846e-26
7.4035e-07 8.2066e-26
7.4158e-07 8.088e-26
7.4282e-07 7.9772e-26
7.4407e-07 7.8779e-26
7.4531e-07 7.8548e-26
7.4656e-07 7.842e-26
7.478e-07 7.7734e-26
7.4905e-07 7.6351e-26
7.5031e-07 7.4178e-26
7.5156e-07 7.1517e-26
7.5282e-07 6.8791e-26
7.5408e-07 6.6618e-26
7.5534e-07 6.5132e-26
7.566e-07 6.4481e-26
7.5787e-07 6.5428e-26
7.5913e-07 6.8199e-26
7.604e-07 7.5137e-26
7.6167e-07 8.0572e-26
7.6295e-07 8.0102e-26
7.6422e-07 7.8139e-26
7.655e-07 7.4158e-26
7.6678e-07 7.0039e-26
7.6806e-07 6.6387e-26
7.6935e-07 6.3866e-26
7.7063e-07 6.2144e-26
7.7192e-07 6.1196e-26
7.7321e-07 6.1336e-26
7.7451e-07 6.2039e-26
7.758e-07 6.2957e-26
7.771e-07 6.3969e-26
7.784e-07 6.4686e-26
7.797e-07 6.4802e-26
7.81e-07 6.4059e-26
7.8231e-07 6.2835e-26
7.8362e-07 6.1702e-26
7.8493e-07 6.1162e-26
7.8624e-07 6.1368e-26
7.8755e-07 6.1973e-26
7.8887e-07 6.284e-26
7.9019e-07 6.2321e-26
7.9151e-07 6.0855e-26
7.9283e-07 5.0681e-26
7.9416e-07 2.6242e-26
7.9549e-07 5.9147e-27
7.9682e-07 -0
7.9815e-07 -0
7.9949e-07 -0
8.0082e-07 -0
8.0216e-07 -0
8.035e-07 -0
8.0485e-07 -0
8.0619e-07 -0
8.0754e-07 -0
8.0889e-07 -0
8.1024e-07 -0
8.116e-07 -0
8.1295e-07 -0
8.1431e-07 -0
8.1568e-07 -0
8.1704e-07 -0
8.1841e-07 -0
8.1977e-07 -0
8.2114e-07 -0
8.2252e-07 -0
8.2389e-07 -0
8.2527e-07 -0
8.2665e-07 -0
8.2803e-07 -0
8.2942e-07 -0
8.308e-07 -0
8.3219e-07 -0
8.3358e-07 -0
8.3498e-07 -0
8.3637e-07 -0
8.3777e-07 -0
8.3917e-07 -0
8.4058e-07 -0
8.4198e-07 -0
8.4339e-07 -0
8.448e-07 -0
8.4621e-07 -0
8.4763e-07 -0
8.4904e-07 -0
8.5046e-07 -0
8.5189e-07 -0
8.5331e-07 -0
8.5474e-07 -0
8.5617e-07 -0
8.576e-07 -0
8.5903e-07 -0
8.6047e-07 -0
8.6191e-07 -0
8.6335e-07 -0
8.6479e-07 -0
8.6624e-07 -0
8.6769e-07 -0
8.6914e-07 -0
8.7059e-07 -0
8.7205e-07 -0
8.735e-07 -0
8.7497e-07 -0
8.7643e-07 -0
8.7789e-07 -0
8.7936e-07 -0
8.8083e-07 -0
8.823e-07 -0
8.8378e-07 -0
8.8526e-07 -0
8.8674e-07 -0
8.8822e-07 -0
8.8971e-07 -0
8.9119e-07 -0
8.9268e-07 -0
8.9418e-07 -0
8.9567e-07 -0
8.9717e-07 -0
8.9867e-07 -0
9.0017e-07 -0
9.0168e-07 -0
9.0318e-07 -0
9.0469e-07 -0
9.0621e-07 -0
9.0772e-07 -0
9.0924e-07 -0
9.1076e-07 -0
9.1228e-07 -0
9.1381e-07 -0
9.1534e-07 -0
9.1687e-07 -0
9.184e-07 -0
9.1994e-07 -0
9.2147e-07 -0
9.2301e-07 -0
9.2456e-07 -0
9.261e-07 -0
9.2765e-07 -0
9.292e-07 -0
9.3076e-07 -0
9.3231e-07 -0
9.3387e-07 -0
9.3543e-07 -0
9.37e-07 -0
9.3857e-07 -0
9.4013e-07 -0
9.4171e-07 -0
9.4328e-07 -0
9.4486e-07 -0
9.4644e-07 -0
9.4802e-07 -0
9.4961e-07 -0
9.5119e-07 -0
9.5278e-07 -0
9.5438e-07 -0
9.5597e-07 -0
9.5757e-07 -0
9.5917e-07 -0
9.6078e-07 -0
9.6238e-07 -0
9.6399e-07 -0
9.656e-07 -0
9.6722e-07 -0
9.6884e-07 -0
9.7046e-07 -0
9.7208e-07 -0
9.737e-07 -0
9.7533e-07 -0
9.7696e-07 -0
9.786e-07 -0
9.8023e-07 -0
9.8187e-07 -0
9.8351e-07 -0
9.8516e-07 -0
9.868e-07 -0
9.8845e-07 -0
9.9011e-07 -0
9.9176e-07 -0
9.9342e-07 -0
9.9508e-07 -0
9.9675e-07 -0
9.9841e-07 -0
1.0001e-06 -0
1.0018e-06 -0
1.0034e-06 -0
1.0051e-06 -0
1.0068e-06 -0
1.0085e-06 -0
1.0102e-06 -0
1.0118e-06 -0
1.0135e-06 -0
1.0152e-06 -0
1.0169e-06 -0
1.0186e-06 -0
1.0203e-06 -0
1.022e-06 -0
1.0237e-06 -0
1.0255e-06 -0
1.0272e-06 -0
1.0289e-06 -0
1.0306e-06 -0
1.0323e-06 -0
1.0341e-06 -0
1.0358e-06 -0
1.0375e-06 -0
1.0393e-06 -0
1.041e-06 -0
1.0427e-06 -0
1.0445e-06 -0
1.0462e-06 -0
1.048e-06 -0
1.0497e-06 -0
1.0515e-06 -0
1.0532e-06 -0
1.055e-06 -0
1.0568e-06 -0
1.0585e-06 -0
1.0603e-06 -0
1.0621e-06 -0
1.0639e-06 -0
1.0656e-06 -0
1.0674e-06 -0
1.0692e-06 -0
1.071e-06 -0
1.0728e-06 -0
1.0746e-06 -0
1.0764e-06 -0
1.0782e-06 -0
1.08e-06 -0
1.0818e-06 -0
1.0836e-06 -0
1.0854e-06 -0
1.0872e-06 -0
1.089e-06 -0
1.0908e-06 -0
1.0927e-06 -0
1.0945e-06 -0
1.0963e-06 -0
1.0982e-06 -0
1.1e-06 -0
