/* US standard atmosphere 1976 (AFGL-TR-86-0110)
Column 1: Height above sea level [m]
Column 2: Number concentration [1/m3] */
0.00e+00 1.973e+23
1.00e+03 1.404e+23
2.00e+03 9.697e+22
3.00e+03 6.017e+22
4.00e+03 3.677e+22
5.00e+03 2.140e+22
6.00e+03 1.271e+22
7.00e+03 7.024e+21
8.00e+03 4.012e+21
9.00e+03 1.539e+21
1.00e+04 6.018e+20
1.10e+04 2.742e+20
1.20e+04 1.237e+20
1.30e+04 6.017e+19
1.40e+04 2.809e+19
1.50e+04 2.025e+19
1.60e+04 1.367e+19
1.70e+04 1.140e+19
1.80e+04 9.677e+18
1.90e+04 8.328e+18
2.00e+04 7.211e+18
2.10e+04 6.261e+18
2.20e+04 5.455e+18
2.30e+04 4.805e+18
2.40e+04 4.199e+18
2.50e+04 3.689e+18
2.75e+04 2.580e+18
3.00e+04 1.810e+18
3.25e+04 1.218e+18
3.50e+04 8.629e+17
3.75e+04 6.128e+17
4.00e+04 4.176e+17
4.25e+04 2.989e+17
4.50e+04 2.137e+17
4.75e+04 1.533e+17
5.00e+04 1.116e+17
5.50e+04 6.023e+16
6.00e+04 3.052e+16
6.50e+04 1.422e+16
7.00e+04 6.030e+15
7.50e+04 2.358e+15
8.00e+04 7.856e+14
8.50e+04 2.276e+14
9.00e+04 6.066e+13
9.50e+04 1.579e+13
1.00e+05 4.756e+12
1.05e+05 1.711e+12
1.10e+05 6.003e+11
1.15e+05 2.325e+11
1.20e+05 1.023e+11
