/* US standard atmosphere 1976 (AFGL-TR-86-0110)
Column 1: Height above sea level [m]
Column 2: Number concentration [1/m3] */
0.00e+00 5.860e+14
1.00e+03 5.320e+14
2.00e+03 4.816e+14
3.00e+03 4.349e+14
4.00e+03 3.919e+14
5.00e+03 3.524e+14
6.00e+03 3.158e+14
7.00e+03 2.824e+14
8.00e+03 2.516e+14
9.00e+03 2.255e+14
1.00e+04 2.047e+14
1.10e+04 1.988e+14
1.20e+04 2.044e+14
1.30e+04 2.468e+14
1.40e+04 3.545e+14
1.50e+04 6.926e+14
1.60e+04 1.104e+15
1.70e+04 1.536e+15
1.80e+04 1.951e+15
1.90e+04 2.293e+15
2.00e+04 2.570e+15
2.10e+04 2.772e+15
2.20e+04 2.899e+15
2.30e+04 2.952e+15
2.40e+04 2.988e+15
2.50e+04 3.118e+15
2.75e+04 2.713e+15
3.00e+04 2.359e+15
3.25e+04 1.820e+15
3.50e+04 1.282e+15
3.75e+04 7.750e+14
4.00e+04 3.349e+14
4.25e+04 1.259e+14
4.50e+04 4.704e+13
4.75e+04 1.945e+13
5.00e+04 9.462e+12
5.50e+04 4.004e+12
6.00e+04 1.831e+12
6.50e+04 8.567e+11
7.00e+04 3.980e+11
7.50e+04 1.795e+11
8.00e+04 7.741e+10
8.50e+04 3.285e+10
9.00e+04 1.306e+10
9.50e+04 5.146e+09
1.00e+05 2.021e+09
1.05e+05 8.254e+08
1.10e+05 3.409e+08
1.15e+05 1.502e+08
1.20e+05 7.722e+07
