/* US standard atmosphere 1976 (AFGL-TR-86-0110)
Column 1: Height above sea level [m]
Column 2: Number concentration [1/m3] */
0.00e+00 5.325e+24
1.00e+03 4.834e+24
2.00e+03 4.376e+24
3.00e+03 3.952e+24
4.00e+03 3.561e+24
5.00e+03 3.202e+24
6.00e+03 2.870e+24
7.00e+03 2.567e+24
8.00e+03 2.286e+24
9.00e+03 2.031e+24
1.00e+04 1.798e+24
1.10e+04 1.586e+24
1.20e+04 1.356e+24
1.30e+04 1.159e+24
1.40e+04 9.905e+23
1.50e+04 8.464e+23
1.60e+04 7.236e+23
1.70e+04 6.186e+23
1.80e+04 5.288e+23
1.90e+04 4.521e+23
2.00e+04 3.864e+23
2.10e+04 3.292e+23
2.20e+04 2.805e+23
2.30e+04 2.391e+23
2.40e+04 2.041e+23
2.50e+04 1.742e+23
2.75e+04 1.179e+23
3.00e+04 8.005e+22
3.25e+04 5.275e+22
3.50e+04 3.680e+22
3.75e+04 2.587e+22
4.00e+04 1.737e+22
4.25e+04 1.213e+22
4.50e+04 8.548e+21
4.75e+04 6.103e+21
5.00e+04 4.464e+21
5.50e+04 2.468e+21
6.00e+04 1.343e+21
6.50e+04 7.077e+20
7.00e+04 3.601e+20
7.50e+04 1.745e+20
8.00e+04 8.009e+19
8.50e+04 3.422e+19
9.00e+04 1.356e+19
9.50e+04 5.263e+18
1.00e+05 1.902e+18
1.05e+05 7.046e+17
1.10e+05 2.573e+17
1.15e+05 9.107e+16
1.20e+05 3.708e+16
