/* US standard atmosphere 1976 (AFGL-TR-86-0110)
Column 1: Height above sea level [m]
Column 2: Pressure [Pa] */
0.00e+00 1.013e+05
1.00e+03 8.988e+04
2.00e+03 7.950e+04
3.00e+03 7.012e+04
4.00e+03 6.166e+04
5.00e+03 5.405e+04
6.00e+03 4.722e+04
7.00e+03 4.111e+04
8.00e+03 3.565e+04
9.00e+03 3.080e+04
1.00e+04 2.650e+04
1.10e+04 2.270e+04
1.20e+04 1.940e+04
1.30e+04 1.658e+04
1.40e+04 1.417e+04
1.50e+04 1.211e+04
1.60e+04 1.035e+04
1.70e+04 8.850e+03
1.80e+04 7.565e+03
1.90e+04 6.467e+03
2.00e+04 5.529e+03
2.10e+04 4.729e+03
2.20e+04 4.047e+03
2.30e+04 3.467e+03
2.40e+04 2.972e+03
2.50e+04 2.549e+03
2.75e+04 1.743e+03
3.00e+04 1.197e+03
3.25e+04 8.010e+02
3.50e+04 5.746e+02
3.75e+04 4.150e+02
4.00e+04 2.871e+02
4.25e+04 2.060e+02
4.50e+04 1.491e+02
4.75e+04 1.090e+02
5.00e+04 7.978e+01
5.50e+04 4.250e+01
6.00e+04 2.190e+01
6.50e+04 1.090e+01
7.00e+04 5.220e+00
7.50e+04 2.400e+00
8.00e+04 1.050e+00
8.50e+04 4.460e-01
9.00e+04 1.840e-01
9.50e+04 7.600e-02
1.00e+05 3.200e-02
1.05e+05 1.400e-02
1.10e+05 7.000e-03
1.15e+05 4.000e-03
1.20e+05 3.000e-03
